Time	PPG1
0	1911
0.008	2099
0.016	2284
0.024	2453
0.032	2599
0.04	2714
0.048	2793
0.056	2836
0.064	2843
0.072	2819
0.08	2767
0.088	2693
0.096	2603
0.104	2502
0.112	2395
0.12	2286
0.128	2177
0.136	2073
0.144	1975
0.152	1886
0.16	1806
0.168	1737
0.176	1682
0.184	1639
0.192	1590
0.2	1541
0.208	1514
0.216	1499
0.224	1492
0.232	1487
0.24	1483
0.248	1478
0.256	1470
0.264	1460
0.272	1449
0.28	1438
0.288	1425
0.296	1410
0.304	1392
0.312	1372
0.32	1349
0.328	1325
0.336	1300
0.344	1273
0.352	1246
0.36	1220
0.368	1197
0.376	1176
0.384	1155
0.392	1136
0.4	1119
0.408	1105
0.416	1096
0.424	1098
0.432	1118
0.44	1161
0.448	1231
0.456	1329
0.464	1454
0.472	1601
0.48	1763
0.488	1929
0.496	2088
0.504	2228
0.512	2343
0.52	2430
0.528	2485
0.536	2509
0.544	2501
0.552	2465
0.56	2407
0.568	2331
0.576	2242
0.584	2144
0.592	2042
0.6	1941
0.608	1844
0.616	1752
0.624	1670
0.632	1600
0.64	1541
0.648	1493
0.656	1456
0.664	1429
0.672	1412
0.68	1402
0.688	1397
0.696	1396
0.704	1397
0.712	1400
0.72	1402
0.728	1403
0.736	1404
0.744	1403
0.752	1400
0.76	1393
0.768	1384
0.776	1371
0.784	1355
0.792	1337
0.8	1318
0.808	1297
0.816	1275
0.824	1252
0.832	1228
0.84	1205
0.848	1185
0.856	1166
0.864	1147
0.872	1131
0.88	1120
0.888	1117
0.896	1129
0.904	1162
0.912	1220
0.92	1308
0.928	1425
0.936	1569
0.944	1733
0.952	1906
0.96	2077
0.968	2236
0.976	2374
0.984	2485
0.992	2565
1	2611
1.008	2623
1.016	2603
1.024	2555
1.032	2486
1.04	2401
1.048	2306
1.056	2203
1.064	2098
1.072	1994
1.08	1894
1.088	1802
1.096	1721
1.104	1652
1.112	1595
1.12	1551
1.128	1518
1.136	1495
1.144	1482
1.152	1476
1.16	1475
1.168	1478
1.176	1482
1.184	1486
1.192	1489
1.2	1489
1.208	1485
1.216	1478
1.224	1467
1.232	1454
1.24	1439
1.248	1423
1.256	1404
1.264	1382
1.272	1359
1.28	1337
1.288	1316
1.296	1295
1.304	1275
1.312	1255
1.32	1236
1.328	1218
1.336	1204
1.344	1196
1.352	1196
1.36	1212
1.368	1251
1.376	1318
1.384	1415
1.392	1545
1.4	1705
1.408	1886
1.416	2075
1.424	2263
1.432	2438
1.44	2588
1.448	2708
1.456	2794
1.464	2845
1.472	2862
1.48	2845
1.488	2800
1.496	2732
1.504	2647
1.512	2551
1.52	2450
1.528	2346
1.536	2241
1.544	2140
1.552	2045
1.56	1959
1.568	1885
1.576	1824
1.584	1774
1.592	1737
1.6	1712
1.608	1696
1.616	1689
1.624	1687
1.632	1686
1.64	1685
1.648	1684
1.656	1681
1.664	1678
1.672	1673
1.68	1666
1.688	1656
1.696	1643
1.704	1628
1.712	1611
1.72	1593
1.728	1576
1.736	1559
1.744	1541
1.752	1521
1.76	1499
1.768	1475
1.776	1450
1.784	1425
1.792	1401
1.8	1379
1.808	1362
1.816	1355
1.824	1367
1.832	1403
1.84	1468
1.848	1567
1.856	1702
1.864	1866
1.872	2051
1.88	2247.00000000001
1.888	2441.00000000001
1.896	2620
1.904	2774
1.912	2896
1.92	2981
1.928	3029
1.936	3042
1.944	3023
1.952	2976
1.96	2905
1.968	2816
1.976	2712
1.984	2600
1.992	2486
2	2374
2.008	2266
2.016	2167
2.024	2081
2.032	2008
2.04	1948
2.048	1901
2.056	1866
2.064	1840
2.072	1822
2.08	1810
2.088	1803
2.096	1799
2.104	1795
2.112	1790
2.12	1783
2.128	1774
2.136	1760
2.144	1743
2.152	1724
2.16	1703
2.168	1682
2.176	1658
2.184	1632
2.192	1604
2.2	1577
2.208	1552
2.216	1525
2.224	1497
2.232	1469
2.24	1429
2.248	1382
2.256	1344
2.264	1311
2.272	1285
2.28	1270
2.288	1270
2.296	1291
2.304	1339
2.312	1420
2.32	1536
2.328	1683
2.336	1854
2.344	2039
2.352	2228
2.36	2406
2.368	2562
2.376	2689
2.384	2782
2.392	2837
2.4	2855
2.408	2836
2.416	2786
2.424	2712
2.432	2620
2.44	2515
2.448	2401
2.456	2285
2.464	2170
2.472	2058
2.48	1954
2.488	1860
2.496	1777
2.504	1707
2.512	1651
2.52	1607
2.528	1573
2.536	1549
2.544	1533
2.552	1523
2.56	1517
2.568	1513
2.576	1510
2.584	1505
2.592	1498
2.6	1488
2.608	1476
2.616	1462
2.624	1447
2.632	1431
2.64	1413
2.648	1395
2.656	1377
2.664	1357
2.672	1336
2.68	1314
2.688	1290
2.696	1266
2.704	1243
2.712	1221
2.72	1199
2.728	1177
2.736	1158
2.744	1145
2.752	1141
2.76	1148
2.768	1172
2.776	1219
2.784	1293
2.792	1395.00000000001
2.8	1523.00000000001
2.808	1672.00000000001
2.816	1833
2.824	1996
2.832	2150
2.84	2287
2.848	2398
2.856	2475
2.864	2518
2.872	2528
2.88	2507
2.888	2458
2.896	2387
2.904	2299
2.912	2197
2.92	2089
2.928	1980
2.936	1874
2.944	1775
2.952	1685
2.96	1606
2.968	1539
2.976	1485
2.984	1442
2.992	1410
3	1390
3.008	1380
3.016	1377
3.024	1378
3.032	1380
3.04	1382
3.048	1383
3.056	1384
3.064	1384
3.072	1383
3.08	1381
3.088	1377
3.096	1370
3.104	1360
3.112	1347
3.12	1331
3.128	1310
3.136	1285
3.144	1261
3.152	1236
3.16	1210
3.168	1185
3.176	1163
3.184	1143
3.192	1125
3.2	1109
3.208	1097
3.216	1096
3.224	1109
3.232	1141
3.24	1197
3.248	1279
3.256	1388.00000000001
3.264	1523.00000000001
3.272	1679.00000000001
3.28	1846.00000000001
3.288	2013.00000000001
3.296	2171.00000000001
3.304	2311.00000000001
3.312	2424.00000000001
3.32	2502
3.328	2544
3.336	2551
3.344	2526
3.352	2471
3.36	2394
3.368	2299
3.376	2192
3.384	2079
3.392	1967
3.4	1859
3.408	1758
3.416	1666
3.424	1586
3.432	1519
3.44	1466
3.448	1428
3.456	1405
3.464	1394
3.472	1390
3.48	1390
3.488	1393
3.496	1398
3.504	1401
3.512	1402
3.52	1400
3.528	1396
3.536	1390
3.544	1382
3.552	1372
3.56	1360
3.568	1346
3.576	1330
3.584	1312
3.592	1291
3.6	1269
3.608	1248
3.616	1226
3.624	1203
3.632	1181
3.64	1161
3.648	1143
3.656	1127
3.664	1115
3.672	1110
3.68	1117
3.688	1143
3.696	1194
3.704	1275
3.712	1389
3.72	1533
3.728	1702
3.736	1887
3.744	2077
3.752	2260.00000000001
3.76	2424.00000000001
3.768	2560.00000000001
3.776	2661
3.784	2724
3.792	2749
3.8	2739
3.808	2696
3.816	2626
3.824	2534.99999999999
3.832	2429.99999999999
3.84	2316
3.848	2197
3.856	2080
3.864	1969
3.872	1869
3.88	1781
3.888	1706
3.896	1646
3.904	1601
3.912	1570
3.92	1550
3.928	1539
3.936	1535
3.944	1536
3.952	1539
3.96	1543
3.968	1546
3.976	1547
3.984	1547
3.992	1544
4	1537
4.008	1528
4.016	1517
4.024	1505
4.032	1489
4.04	1470
4.048	1449
4.056	1427
4.064	1405
4.072	1384
4.08	1363
4.088	1343
4.096	1323
4.104	1302
4.112	1281
4.12	1266
4.128	1259
4.136	1267
4.144	1297
4.152	1356
4.16	1448
4.168	1576
4.176	1738
4.184	1926
4.192	2129
4.2	2335
4.208	2529
4.216	2699
4.224	2839
4.232	2942
4.24	3003
4.248	3026
4.256	3012
4.264	2965
4.272	2891
4.28	2796
4.288	2683
4.296	2559
4.304	2434
4.312	2310
4.32	2191
4.328	2083
4.336	1988
4.344	1907
4.352	1839
4.36	1784
4.368	1742
4.376	1712
4.384	1693
4.392	1682
4.4	1675
4.408	1672
4.416	1669
4.424	1666
4.432	1662
4.44	1655
4.448	1645
4.456	1634
4.464	1620
4.472	1604
4.48	1586
4.488	1566
4.496	1544
4.504	1518
4.512	1491
4.52	1465
4.528	1438
4.536	1410
4.544	1383
4.552	1358
4.56	1334
4.568	1312
4.576	1293
4.584	1281
4.592	1280
4.6	1297
4.608	1342.00000000001
4.616	1419
4.624	1533
4.632	1683
4.64	1863
4.648	2064
4.656	2272
4.664	2473
4.672	2655
4.68	2806
4.688	2917
4.696	2986
4.704	3012
4.712	2999
4.72	2952
4.728	2874
4.736	2773
4.744	2655
4.752	2524
4.76	2387
4.768	2251
4.776	2120
4.784	1998
4.792	1889
4.8	1795
4.808	1715
4.816	1649
4.824	1598
4.832	1561
4.84	1534
4.848	1513
4.856	1499
4.864	1489
4.872	1481
4.88	1474
4.888	1467
4.896	1460
4.904	1451
4.912	1441
4.92	1427
4.928	1410
4.936	1391
4.944	1371
4.952	1349
4.96	1325
4.968	1300
4.976	1272
4.984	1243
4.992	1214
5	1183
5.008	1152
5.016	1121
5.024	1094
5.032	1070
5.04	1050
5.048	1038
5.056	1040
5.064	1061
5.072	1108
5.08	1185
5.088	1294
5.096	1435
5.104	1604
5.112	1788
5.12	1978
5.128	2162
5.136	2327
5.144	2463
5.152	2563
5.16	2623
5.168	2642
5.176	2621
5.184	2566
5.192	2483
5.2	2379
5.208	2260
5.216	2132
5.224	2004
5.232	1880
5.24	1763
5.248	1658
5.256	1565
5.264	1486
5.272	1420
5.28	1369
5.288	1334
5.296	1311
5.304	1298
5.312	1292
5.32	1292
5.328	1295
5.336	1298
5.344	1300
5.352	1301
5.36	1300
5.368	1296
5.376	1289
5.384	1279
5.392	1267
5.4	1254
5.408	1238
5.416	1219
5.424	1199
5.432	1178
5.44	1153
5.448	1126
5.456	1099
5.464	1074
5.472	1049
5.48	1027
5.488	1008
5.496	991
5.504	980
5.512	980
5.52	997.000000000003
5.528	1035.00000000001
5.536	1099.00000000001
5.544	1194.00000000001
5.552	1319.00000000002
5.56	1473.00000000002
5.568	1648.00000000002
5.576	1833.00000000002
5.584	2017.00000000002
5.592	2186.00000000002
5.6	2329.00000000001
5.608	2440.00000000001
5.616	2512.00000000001
5.624	2543
5.632	2535
5.64	2489
5.648	2410
5.656	2305
5.664	2184
5.672	2054
5.68	1924
5.688	1799
5.696	1684
5.704	1581
5.712	1492
5.72	1418
5.728	1360
5.736	1316
5.744	1285
5.752	1265
5.76	1254
5.768	1250
5.776	1251
5.784	1257
5.792	1264
5.8	1269
5.808	1273
5.816	1275
5.824	1274
5.832	1268
5.84	1260
5.848	1250
5.856	1237
5.864	1222
5.872	1203
5.88	1182
5.888	1158
5.896	1132
5.904	1106
5.912	1080
5.92	1055
5.928	1034
5.936	1015
5.944	999
5.952	986
5.96	981
5.968	991
5.976	1019
5.984	1072
5.992	1156
6	1274
6.008	1425
6.016	1605
6.024	1804
6.032	2009
6.04	2207
6.048	2386
6.056	2534
6.064	2643
6.072	2710
6.08	2732
6.088	2711
6.096	2653
6.104	2563
6.112	2448
6.12	2318
6.128	2182
6.136	2046
6.144	1916
6.152	1796
6.16	1689
6.168	1597
6.176	1521
6.184	1461
6.192	1416
6.2	1385
6.208	1366
6.216	1356
6.224	1353
6.232	1355
6.24	1359
6.248	1363
6.256	1366
6.264	1366
6.272	1363
6.28	1358
6.288	1349
6.296	1338
6.304	1326
6.312	1313
6.32	1298
6.328	1278
6.336	1280
6.344	1294
6.352	1290
6.36	1277
6.368	1259
6.376	1239
6.384	1219
6.392	1201
6.4	1187
6.408	1180
6.416	1183
6.424	1205
6.432	1252
6.44	1329
6.448	1442
6.456	1588
6.464	1763
6.472	1960
6.48	2165
6.488	2366
6.496	2550
6.504	2705.00000000002
6.512	2824.00000000001
6.52	2902.00000000001
6.528	2938
6.536	2934
6.544	2892.99999999999
6.552	2819.99999999999
6.56	2721.99999999999
6.568	2605.99999999999
6.576	2477.99999999999
6.584	2345.99999999999
6.592	2215.99999999999
6.6	2091.99999999999
6.608	1978.99999999999
6.616	1880.99999999999
6.624	1798.99999999999
6.632	1733.99999999999
6.64	1685
6.648	1651
6.656	1628
6.664	1613
6.672	1606
6.68	1604
6.688	1605
6.696	1609
6.704	1614
6.712	1617
6.72	1618
6.728	1615
6.736	1609
6.744	1600
6.752	1588
6.76	1573
6.768	1557
6.776	1539
6.784	1519
6.792	1498
6.8	1475
6.808	1452
6.816	1428
6.824	1403
6.832	1377
6.84	1352
6.848	1330
6.856	1314
6.864	1308
6.872	1318
6.88	1352
6.888	1418
6.896	1521
6.904	1663
6.912	1841
6.92	2045
6.928	2262
6.936	2476
6.944	2674
6.952	2846
6.96	2983
6.968	3079
6.976	3130
6.984	3136
6.992	3102
7	3034
7.008	2937
7.016	2819
7.024	2686
7.032	2544
7.04	2402
7.048	2265
7.056	2137
7.064	2023
7.072	1925
7.08	1843
7.088	1778
7.096	1728
7.104	1691
7.112	1666
7.12	1649
7.128	1638
7.136	1631
7.144	1627
7.152	1624
7.16	1620
7.168	1615
7.176	1609
7.184	1599
7.192	1586
7.2	1570
7.208	1552
7.216	1531
7.224	1508
7.232	1482
7.24	1453
7.248	1423
7.256	1390
7.264	1355
7.272	1320
7.28	1283
7.288	1246
7.296	1210
7.304	1179
7.312	1154
7.32	1140
7.328	1147
7.336	1181
7.344	1247
7.352	1352
7.36	1495
7.368	1673
7.376	1875
7.384	2087
7.392	2297
7.4	2489
7.408	2649
7.416	2769
7.424	2845
7.432	2875
7.44	2860
7.448	2804
7.456	2714
7.464	2597
7.472	2461
7.48	2314
7.488	2164
7.496	2017
7.504	1877.99999999999
7.512	1751.99999999999
7.52	1641.99999999999
7.528	1548.99999999999
7.536	1474.99999999999
7.544	1417.99999999999
7.552	1376
7.56	1349
7.568	1334
7.576	1326
7.584	1323
7.592	1323
7.6	1324
7.608	1324
7.616	1324
7.624	1324
7.632	1322
7.64	1317
7.648	1310
7.656	1299
7.664	1285
7.672	1268
7.68	1247
7.688	1223
7.696	1198
7.704	1172
7.712	1144
7.72	1114
7.728	1084
7.736	1057
7.744	1033
7.752	1010
7.76	990
7.768	977
7.776	975
7.784	990
7.792	1029
7.8	1098
7.808	1200
7.816	1336
7.824	1502
7.832	1691
7.84	1891
7.848	2088
7.856	2267
7.864	2417
7.872	2529
7.88	2596
7.888	2616
7.896	2592
7.904	2528
7.912	2432
7.92	2313
7.928	2179
7.936	1965
7.944	1824
7.952	1690
7.96	1461
7.968	1374
7.976	1305
7.984	1232
7.992	1206
8	1193
8.008	1188
8.016	1188
8.024	1192
8.032	1198
8.04	1205
8.048	1213
8.056	1220
8.064	1225
8.072	1229
8.08	1226
8.088	1219
8.096	1207
8.104	1175.99999999999
8.112	1156
8.12	1131.99999999999
8.128	1091
8.136	1063.99999999999
8.144	1037
8.152	1010.99999999999
8.16	986
8.168	963.999999999996
8.176	948
8.184	939
8.192	940
8.2	955
8.208	991
8.216	1055
8.224	1153
8.232	1285
8.24	1449
8.248	1638
8.256	1840
8.264	2042
8.272	2231
8.28	2395
8.288	2521
8.296	2602
8.304	2636
8.312	2625
8.32	2573
8.328	2486
8.336	2372
8.344	2238
8.352	2101
8.36	1974
8.368	1855
8.376	1747
8.384	1651
8.392	1570
8.4	1505
8.408	1456
8.416	1420
8.424	1396
8.432	1382
8.44	1377
8.448	1378
8.456	1381
8.464	1386
8.472	1392
8.48	1399
8.488	1405
8.496	1409
8.504	1410
8.512	1407
8.52	1402
8.528	1393
8.536	1380
8.544	1364
8.552	1347
8.56	1329
8.568	1309
8.576	1288
8.584	1267
8.592	1247
8.6	1227
8.608	1207
8.616	1189
8.624	1175
8.632	1166
8.64	1164
8.648	1176
8.656	1208
8.664	1265
8.672	1352
8.68	1469
8.688	1615
8.696	1781
8.704	1955
8.712	2127
8.72	2288
8.728	2425
8.736	2530
8.744	2598
8.752	2628
8.76	2621
8.768	2579
8.776	2507
8.784	2413
8.792	2301
8.8	2180
8.808	2057
8.816	1937
8.824	1825
8.832	1726
8.84	1642
8.848	1574
8.856	1521
8.864	1483
8.872	1459
8.88	1446
8.888	1442
8.896	1445
8.904	1451
8.912	1459
8.92	1468
8.928	1476
8.936	1482
8.944	1485
8.952	1486
8.96	1483
8.968	1478
8.976	1470
8.984	1460
8.992	1448
9	1434
9.008	1418
9.016	1401
9.024	1383
9.032	1365
9.04	1348
9.048	1329
9.056	1311
9.064	1293
9.072	1277
9.08	1267
9.088	1266
9.096	1280
9.104	1318.00000000001
9.112	1387
9.12	1490.00000000003
9.128	1625
9.136	1789.00000000004
9.144	1972
9.152	2162.00000000004
9.16	2346
9.168	2510.00000000003
9.176	2645
9.184	2746.00000000002
9.192	2807
9.2	2828
9.208	2810
9.216	2757.99999999999
9.224	2678
9.232	2576
9.24	2459
9.248	2336
9.256	2211
9.264	2090
9.272	1977
9.28	1876
9.288	1788
9.296	1716
9.304	1659
9.312	1617
9.32	1589
9.328	1572
9.336	1562
9.344	1558
9.352	1558
9.36	1559
9.368	1560
9.376	1560
9.384	1559
9.392	1557
9.4	1553
9.408	1547
9.416	1540
9.424	1530
9.432	1516
9.44	1499
9.448	1480
9.456	1460
9.464	1441
9.472	1422
9.48	1402
9.488	1382
9.496	1362
9.504	1342
9.512	1320
9.52	1298
9.528	1280
9.536	1271
9.544	1279
9.552	1310
9.56	1371
9.568	1467
9.576	1598
9.584	1760
9.592	1943
9.6	2134
9.608	2320
9.616	2488
9.624	2625
9.632	2726
9.64	2786
9.648	2804
9.656	2783
9.664	2727
9.672	2642
9.68	2534
9.688	2410
9.696	2278
9.704	2143
9.712	2011
9.72	1887
9.728	1776
9.736	1679
9.744	1598
9.752	1533
9.76	1484
9.768	1447
9.776	1422
9.784	1406
9.792	1397
9.8	1393
9.808	1391
9.816	1390
9.824	1387
9.832	1383
9.84	1378
9.848	1370
9.856	1361
9.864	1352
9.872	1339
9.88	1324
9.888	1306
9.896	1286
9.904	1265
9.912	1242
9.92	1216
9.928	1190
9.936	1165
9.944	1140
9.952	1114
9.96	1089
9.968	1067
9.976	1048
9.984	1033
9.992	1030
10	1044
10.008	1083.00000000001
10.016	1153
10.024	1255.00000000003
10.032	1391
10.04	1555.00000000004
10.048	1736
10.056	1922.00000000004
10.064	2099
10.072	2254.00000000003
10.08	2376
10.088	2460.00000000001
10.096	2505
10.104	2511
10.112	2479
10.12	2413.99999999998
10.128	2321
10.136	2207.99999999997
10.144	2082
10.152	1951.99999999997
10.16	1824
10.168	1702.99999999997
10.176	1595
10.184	1500.99999999998
10.192	1421
10.2	1356.99999999999
10.208	1309
10.216	1275.99999999999
10.224	1255
10.232	1244
10.24	1240
10.248	1241
10.256	1246
10.264	1252
10.272	1257
10.28	1261
10.288	1262
10.296	1260
10.304	1257
10.312	1253
10.32	1246
10.328	1236
10.336	1224
10.344	1210
10.352	1193
10.36	1175
10.368	1157
10.376	1138
10.384	1117
10.392	1096
10.4	1109
10.408	1140
10.416	1146
10.424	1141
10.432	1134
10.44	1132
10.448	1142
10.456	1170
10.464	1222
10.472	1302
10.48	1412
10.488	1550
10.496	1709
10.504	1878
10.512	2044
10.52	2197
10.528	2326
10.536	2422
10.544	2482
10.552	2503
10.56	2487
10.568	2438
10.576	2360
10.584	2261
10.592	2150
10.6	2031
10.608	1913
10.616	1801
10.624	1698
10.632	1607
10.64	1529
10.648	1467
10.656	1422
10.664	1390
10.672	1370
10.68	1360
10.688	1357
10.696	1359
10.704	1365
10.712	1372
10.72	1378
10.728	1383
10.736	1386
10.744	1387
10.752	1387
10.76	1384
10.768	1379
10.776	1373
10.784	1364
10.792	1351
10.8	1336
10.808	1319
10.816	1301
10.824	1282
10.832	1262
10.84	1241
10.848	1221
10.856	1202
10.864	1182
10.872	1163
10.88	1149
10.888	1142
10.896	1148
10.904	1174
10.912	1225
10.92	1307
10.928	1420
10.936	1562
10.944	1726
10.952	1900
10.96	2073
10.968	2234
10.976	2369
10.984	2470
10.992	2532
11	2556
11.008	2543
11.016	2497
11.024	2422.99999999998
11.032	2327
11.04	2215.99999999997
11.048	2097
11.056	1976.99999999997
11.064	1861
11.072	1753.99999999998
11.08	1657
11.088	1573.99999999998
11.096	1507
11.104	1455.99999999999
11.112	1419
11.12	1397
11.128	1386
11.136	1384
11.144	1388
11.152	1395
11.16	1404
11.168	1411
11.176	1418
11.184	1423
11.192	1426
11.2	1425
11.208	1421
11.216	1415
11.224	1406
11.232	1394
11.24	1382
11.248	1369
11.256	1354
11.264	1336
11.272	1317
11.28	1298
11.288	1277
11.296	1256
11.304	1236
11.312	1217
11.32	1201
11.328	1190
11.336	1186
11.344	1196
11.352	1227
11.36	1286
11.368	1377
11.376	1502
11.384	1656
11.392	1832
11.4	2018
11.408	2200
11.416	2364
11.424	2501
11.432	2604
11.44	2667
11.448	2691
11.456	2677
11.464	2630
11.472	2556
11.48	2462
11.488	2353
11.496	2237
11.504	2119
11.512	2004
11.52	1899
11.528	1807
11.536	1728
11.544	1663
11.552	1614
11.56	1579
11.568	1556
11.576	1542
11.584	1535
11.592	1534
11.6	1536
11.608	1540
11.616	1545
11.624	1550
11.632	1553
11.64	1555
11.648	1555
11.656	1553
11.664	1549
11.672	1542
11.68	1531
11.688	1518
11.696	1503
11.704	1488
11.712	1471
11.72	1454
11.728	1436
11.736	1417
11.744	1397
11.752	1375
11.76	1352
11.768	1328
11.776	1307
11.784	1296
11.792	1300
11.8	1327
11.808	1386
11.816	1482
11.824	1616
11.832	1781
11.84	1967
11.848	2161
11.856	2348
11.864	2515
11.872	2652
11.88	2750
11.888	2809
11.896	2829
11.904	2812
11.912	2762
11.92	2685
11.928	2589
11.936	2480
11.944	2364
11.952	2247
11.96	2132
11.968	2022
11.976	1923
11.984	1837
11.992	1764
12	1704
12.008	1657.99999999999
12.016	1624
12.024	1600
12.032	1585
12.04	1578
12.048	1575
12.056	1574
12.064	1573
12.072	1572
12.08	1569
12.088	1565
12.096	1558
12.104	1548
12.112	1536
12.12	1522
12.128	1506
12.136	1488
12.144	1469
12.152	1450
12.16	1428
12.168	1403.99999999999
12.176	1379
12.184	1352.99999999999
12.192	1327
12.2	1300.99999999999
12.208	1274
12.216	1245.99999999999
12.224	1219
12.232	1198
12.24	1187
12.248	1194
12.256	1225
12.264	1289.00000000002
12.272	1391
12.28	1529.00000000003
12.288	1696
12.296	1880
12.304	2067
12.312	2243
12.32	2393
12.328	2508
12.336	2584
12.344	2619
12.352	2615
12.36	2577
12.368	2510
12.376	2418
12.384	2308
12.392	2188
12.4	2065
12.408	1943
12.416	1826
12.424	1719
12.432	1625
12.44	1545
12.448	1478
12.456	1424
12.464	1385
12.472	1359
12.48	1342
12.488	1331
12.496	1327
12.504	1327
12.512	1328
12.52	1328
12.528	1328
12.536	1327
12.544	1324
12.552	1318
12.56	1309
12.568	1297
12.576	1283
12.584	1267
12.592	1249
12.6	1230
12.608	1210
12.616	1190
12.624	1170
12.632	1149
12.64	1128
12.648	1106
12.656	1084
12.664	1062
12.672	1041
12.68	1024
12.688	1011
12.696	1008
12.704	1022
12.712	1062
12.72	1134
12.728	1241
12.736	1383
12.744	1553
12.752	1740
12.76	1930
12.768	2108
12.776	2261
12.784	2379
12.792	2454
12.8	2486
12.808	2479
12.816	2436
12.824	2362
12.832	2265
12.84	2152
12.848	2030
12.856	1906
12.864	1785
12.872	1673
12.88	1572
12.888	1484
12.896	1413
12.904	1359
12.912	1319
12.92	1292
12.928	1276
12.936	1270
12.944	1270
12.952	1273
12.96	1279
12.968	1285
12.976	1290
12.984	1294
12.992	1297
13	1298
13.008	1296
13.016	1291
13.024	1284
13.032	1275
13.04	1264
13.048	1250
13.056	1234
13.064	1215
13.072	1195
13.08	1174
13.088	1153
13.096	1133
13.104	1111
13.112	1089
13.12	1068
13.128	1048
13.136	1032
13.144	1025
13.152	1033
13.16	1062
13.168	1117.00000000002
13.176	1205
13.184	1327.00000000003
13.192	1478
13.2	1650.00000000004
13.208	1833
13.216	2014.00000000004
13.224	2178
13.232	2315.00000000003
13.24	2416
13.248	2475.00000000001
13.256	2495
13.264	2476.99999999999
13.272	2426
13.28	2347.99999999998
13.288	2249
13.296	2136.99999999997
13.304	2018
13.312	1897.99999999997
13.32	1781
13.328	1672
13.336	1576
13.344	1495
13.352	1431
13.36	1383
13.368	1349
13.376	1328
13.384	1317
13.392	1314
13.4	1316
13.408	1322
13.416	1330
13.424	1338
13.432	1343
13.44	1346
13.448	1347
13.456	1347
13.464	1343
13.472	1336
13.48	1326
13.488	1313
13.496	1298
13.504	1281
13.512	1265
13.52	1247
13.528	1227
13.536	1208
13.544	1189
13.552	1170
13.56	1151
13.568	1133
13.576	1114
13.584	1095
13.592	1082
13.6	1079
13.608	1094
13.616	1134
13.624	1205
13.632	1311
13.64	1451
13.648	1618
13.656	1802
13.664	1991
13.672	2171
13.68	2328
13.688	2451
13.696	2535
13.704	2577
13.712	2580
13.72	2548
13.728	2486
13.736	2399
13.744	2295
13.752	2181
13.76	2063
13.768	1947
13.776	1838
13.784	1737
13.792	1649
13.8	1576
13.808	1518
13.816	1476
13.824	1448
13.832	1432
13.84	1425
13.848	1425
13.856	1430
13.864	1436
13.872	1442
13.88	1448
13.888	1452
13.896	1454
13.904	1454
13.912	1452
13.92	1448
13.928	1442
13.936	1434
13.944	1424
13.952	1412
13.96	1398
13.968	1383
13.976	1368
13.984	1352
13.992	1335
14	1318
14.008	1300
14.016	1281
14.024	1263
14.032	1247
14.04	1234
14.048	1229
14.056	1241
14.064	1276
14.072	1341.00000000002
14.08	1443
14.088	1580.00000000003
14.096	1747
14.104	1937.00000000004
14.112	2133
14.12	2320.00000000004
14.128	2485
14.136	2619.00000000002
14.144	2713
14.152	2765
14.16	2777
14.168	2751.99999999999
14.176	2697
14.184	2619.99999999998
14.192	2525
14.2	2418.99999999998
14.208	2308
14.216	2195.99999999998
14.224	2087
14.232	1985.99999999998
14.24	1895
14.248	1817.99999999998
14.256	1754
14.264	1704.99999999999
14.272	1670
14.28	1645
14.288	1630
14.296	1621
14.304	1618
14.312	1617
14.32	1617
14.328	1615
14.336	1612
14.344	1607
14.352	1600
14.36	1592
14.368	1583
14.376	1574
14.384	1565
14.392	1554
14.4	1539
14.408	1523
14.416	1505
14.424	1486
14.432	1467
14.44	1449
14.448	1430
14.456	1411
14.464	1393
14.472	1374
14.48	1354
14.488	1334
14.496	1343
14.504	1374
14.512	1402
14.52	1448
14.528	1524
14.536	1637
14.544	1788
14.552	1969
14.56	2169
14.568	2372
14.576	2561
14.584	2723
14.592	2848
14.6	2930
14.608	2969
14.616	2969
14.624	2934
14.632	2869
14.64	2782
14.648	2679
14.656	2568
14.664	2451
14.672	2334
14.68	2220
14.688	2112
14.696	2015
14.704	1931
14.712	1859
14.72	1801
14.728	1756
14.736	1721
14.744	1696
14.752	1677
14.76	1663
14.768	1652
14.776	1641
14.784	1631
14.792	1621
14.8	1611
14.808	1601
14.816	1590
14.824	1578
14.832	1566
14.84	1552
14.848	1536
14.856	1519
14.864	1500
14.872	1478
14.88	1455
14.888	1432
14.896	1408
14.904	1383
14.912	1358
14.92	1332
14.928	1306
14.936	1280
14.944	1255
14.952	1233
14.96	1216
14.968	1211
14.976	1228
14.984	1273
14.992	1352
15	1467
15.008	1617.00000000004
15.016	1792
15.024	1979.00000000004
15.032	2166
15.04	2337.00000000003
15.048	2480
15.056	2585.00000000002
15.064	2650
15.072	2674
15.08	2659
15.088	2610.99999999999
15.096	2536
15.104	2440.99999999998
15.112	2335
15.12	2221.99999999997
15.128	2107
15.136	1995.99999999998
15.144	1892
15.152	1797.99999999998
15.16	1715
15.168	1646.99999999999
15.176	1593
15.184	1551.99999999999
15.192	1524
15.2	1507
15.208	1498
15.216	1494
15.224	1494
15.232	1495
15.24	1496
15.248	1496
15.256	1496
15.264	1494
15.272	1489
15.28	1483
15.288	1476
15.296	1466
15.304	1454
15.312	1441
15.32	1427
15.328	1412
15.336	1395
15.344	1377
15.352	1358
15.36	1338
15.368	1318
15.376	1299
15.384	1282
15.392	1265
15.4	1249
15.408	1234
15.416	1221
15.424	1215
15.432	1223
15.44	1253
15.448	1310
15.456	1399
15.464	1522
15.472	1672
15.48	1842
15.488	2020
15.496	2192
15.504	2344
15.512	2467
15.52	2555
15.528	2602
15.536	2608
15.544	2579
15.552	2522
15.56	2442
15.568	2346
15.576	2241
15.584	2134
15.592	2028
15.6	1928
15.608	1836
15.616	1754
15.624	1686
15.632	1632
15.64	1591
15.648	1563
15.656	1545
15.664	1536
15.672	1533
15.68	1536
15.688	1541
15.696	1547
15.704	1553
15.712	1557
15.72	1559
15.728	1558
15.736	1554
15.744	1548
15.752	1538
15.76	1526
15.768	1514
15.776	1501
15.784	1487
15.792	1471
15.8	1453
15.808	1434
15.816	1413
15.824	1393
15.832	1374
15.84	1355
15.848	1338
15.856	1320
15.864	1302
15.872	1287
15.88	1279
15.888	1283
15.896	1308
15.904	1360
15.912	1444
15.92	1562
15.928	1711
15.936	1882
15.944	2063
15.952	2242
15.96	2404
15.968	2539
15.976	2639
15.984	2700
15.992	2720
16	2703
16.008	2655
16.016	2580.99999999996
16.024	2489
16.032	2386
16.04	2277
16.048	2168.99999999995
16.056	2066
16.064	1970
16.072	1884
16.08	1808.99999999997
16.088	1746
16.096	1695
16.104	1658
16.112	1632.99999999999
16.12	1619
16.128	1613
16.136	1614
16.144	1619
16.152	1626
16.16	1633
16.168	1640
16.176	1643
16.184	1643
16.192	1639
16.2	1632
16.208	1620.99999999999
16.216	1608
16.224	1594
16.232	1578
16.24	1559.99999999999
16.248	1542
16.256	1524
16.264	1505
16.272	1486.99999999999
16.28	1470
16.288	1452
16.296	1434
16.304	1415.99999999999
16.312	1397
16.32	1380
16.328	1365
16.336	1357
16.344	1362
16.352	1387
16.36	1441
16.368	1528.00000000005
16.376	1650
16.384	1805
16.392	1985
16.4	2178
16.408	2369
16.416	2544
16.424	2690
16.432	2801
16.44	2872
16.448	2901
16.456	2895
16.464	2857
16.472	2792
16.48	2705
16.488	2605
16.496	2501
16.504	2397
16.512	2293
16.52	2194
16.528	2104
16.536	2025
16.544	1938
16.552	1850
16.56	1788
16.568	1747
16.576	1723
16.584	1711
16.592	1708
16.6	1710
16.608	1715
16.616	1721
16.624	1726
16.632	1729
16.64	1730
16.648	1726
16.656	1719
16.664	1712
16.672	1702
16.68	1689
16.688	1675
16.696	1658
16.704	1637
16.712	1616
16.72	1594
16.728	1572
16.736	1551
16.744	1531
16.752	1510
16.76	1487
16.768	1464
16.776	1440
16.784	1418
16.792	1401
16.8	1394
16.808	1407
16.816	1453
16.824	1538
16.832	1665
16.84	1833
16.848	2033
16.856	2253
16.864	2477
16.872	2687
16.88	2868
16.888	3008
16.896	3101
16.904	3146
16.912	3146
16.92	3109
16.928	3041
16.936	2949
16.944	2842
16.952	2726
16.96	2606
16.968	2486
16.976	2369
16.984	2260
16.992	2162
17	2077
17.008	2007
17.016	1951.99999999998
17.024	1911
17.032	1883
17.04	1864
17.048	1852
17.056	1847
17.064	1846
17.072	1845
17.08	1845
17.088	1843
17.096	1838
17.104	1831
17.112	1822
17.12	1808
17.128	1790
17.136	1768
17.144	1742.99999999999
17.152	1716
17.16	1687
17.168	1657
17.176	1624.99999999999
17.184	1594
17.192	1564
17.2	1534
17.208	1504.99999999999
17.216	1478
17.224	1449
17.232	1421
17.24	1393.99999999999
17.248	1367
17.256	1345
17.264	1335
17.272	1346.00000000001
17.28	1385
17.288	1461
17.296	1579
17.304	1737.00000000008
17.312	1925
17.32	2130
17.328	2338
17.336	2533.00000000008
17.344	2699
17.352	2826
17.36	2907
17.368	2943
17.376	2938
17.384	2895
17.392	2822
17.4	2726.99999999995
17.408	2618
17.416	2498
17.424	2374
17.432	2252
17.44	2134
17.448	2023
17.456	1923
17.464	1835
17.472	1762
17.48	1703
17.488	1658
17.496	1626
17.504	1606
17.512	1596
17.52	1593
17.528	1593
17.536	1593
17.544	1593
17.552	1592
17.56	1588
17.568	1581
17.576	1571
17.584	1557
17.592	1541
17.6	1523
17.608	1502
17.616	1479
17.624	1456
17.632	1431
17.64	1406
17.648	1381
17.656	1357
17.664	1333
17.672	1310
17.68	1288
17.688	1267
17.696	1248
17.704	1229
17.712	1211
17.72	1196
17.728	1187
17.736	1191
17.744	1214
17.752	1263
17.76	1347
17.768	1466
17.776	1617
17.784	1794
17.792	1983
17.8	2171
17.808	2342
17.816	2484
17.824	2590
17.832	2655
17.84	2678
17.848	2662
17.856	2615
17.864	2544
17.872	2453
17.88	2349
17.888	2238
17.896	2125
17.904	2015
17.912	1911
17.92	1816
17.928	1732
17.936	1661
17.944	1604
17.952	1560
17.96	1528
17.968	1506
17.976	1493
17.984	1488
17.992	1488
18	1493
18.008	1501
18.016	1508
18.024	1513
18.032	1517
18.04	1517
18.048	1513
18.056	1505
18.064	1493
18.072	1478
18.08	1459.99999999999
18.088	1440
18.096	1419
18.104	1397
18.112	1372.99999999999
18.12	1350
18.128	1327
18.136	1305
18.144	1283.99999999999
18.152	1263
18.16	1243
18.168	1222
18.176	1200.99999999999
18.184	1183
18.192	1171
18.2	1172
18.208	1192.00000000001
18.216	1239
18.224	1320
18.232	1437
18.24	1587.00000000007
18.248	1762
18.256	1952
18.264	2144
18.272	2399.00000000008
18.28	2534
18.288	2632
18.296	2709
18.304	2690.99999999999
18.312	2642
18.32	2475
18.328	2372
18.336	2261.99999999993
18.344	2040
18.352	1938
18.36	1844
18.368	1720.99999999996
18.376	1656
18.384	1605
18.392	1569
18.4	1544.99999999999
18.408	1532
18.416	1528
18.424	1530
18.432	1536
18.44	1545
18.448	1555
18.456	1564
18.464	1571
18.472	1576
18.48	1577
18.488	1575
18.496	1569
18.504	1559
18.512	1545
18.52	1528
18.528	1507
18.536	1484
18.544	1459
18.552	1432
18.56	1371
18.568	1295
18.576	1245
18.584	1209
18.592	1180
18.6	1155
18.608	1134
18.616	1116
18.624	1105
18.632	1107
18.64	1128
18.648	1177
18.656	1262
18.664	1384
18.672	1542
18.68	1730
18.688	1935
18.696	2141
18.704	2333
18.712	2499
18.72	2630
18.728	2719
18.736	2766
18.744	2772
18.752	2742
18.76	2683
18.768	2601
18.776	2501
18.784	2392
18.792	2278
18.8	2164
18.808	2055
18.816	1953
18.824	1860
18.832	1779
18.84	1712
18.848	1657
18.856	1616
18.864	1589
18.872	1576
18.88	1573
18.888	1578
18.896	1586
18.904	1596
18.912	1606
18.92	1614
18.928	1619
18.936	1620
18.944	1616
18.952	1609
18.96	1599
18.968	1586
18.976	1570
18.984	1553
18.992	1536
19	1516
19.008	1494
19.016	1471.99999999999
19.024	1450
19.032	1428
19.04	1407
19.048	1385.99999999999
19.056	1364
19.064	1343
19.072	1322
19.08	1301.99999999999
19.088	1290
19.096	1293
19.104	1320
19.112	1378.00000000003
19.12	1474
19.128	1610
19.136	1782
19.144	1983.00000000009
19.152	2201
19.16	2417
19.168	2617
19.176	2788.00000000007
19.184	2919
19.192	3006
19.2	3047
19.208	3047
19.216	3010
19.224	2943
19.232	2855
19.24	2750.99999999995
19.248	2637
19.256	2519
19.264	2402
19.272	2289.99999999995
19.28	2187
19.288	2094
19.296	2011
19.304	1939.99999999997
19.312	1881
19.32	1837
19.328	1806
19.336	1786.99999999999
19.344	1779
19.352	1778
19.36	1782
19.368	1788
19.376	1793
19.384	1797
19.392	1797
19.4	1793
19.408	1786
19.416	1776
19.424	1763
19.432	1746.99999999999
19.44	1728
19.448	1706
19.456	1684
19.464	1660
19.472	1632
19.48	1603
19.488	1575
19.496	1547
19.504	1519
19.512	1492
19.52	1465
19.528	1439
19.536	1415
19.544	1392
19.552	1372
19.56	1365
19.568	1379
19.576	1423
19.584	1505
19.592	1626
19.6	1784
19.608	1974
19.616	2183
19.624	2395
19.632	2592
19.64	2761
19.648	2895
19.656	2986
19.664	3033
19.672	3039
19.68	3009
19.688	2950
19.696	2866
19.704	2763
19.712	2647
19.72	2524
19.728	2399
19.736	2276
19.744	2158
19.752	2051
19.76	1956
19.768	1873
19.776	1805
19.784	1750
19.792	1709
19.8	1682
19.808	1663
19.816	1652
19.824	1646
19.832	1644
19.84	1644
19.848	1643
19.856	1640
19.864	1633
19.872	1623
19.88	1608
19.888	1588
19.896	1566
19.904	1542
19.912	1515
19.92	1486
19.928	1455
19.936	1425
19.944	1394
19.952	1362
19.96	1332
19.968	1303
19.976	1276
19.984	1250
19.992	1225
20	1201
20.008	1177
20.016	1153.99999999999
20.024	1136
20.032	1128
20.04	1137
20.048	1173.00000000002
20.056	1241
20.064	1345
20.072	1483
20.08	1650.00000000008
20.088	1837
20.096	2031
20.104	2217
20.112	2382.00000000007
20.12	2516
20.128	2613
20.136	2671
20.144	2690
20.152	2671
20.16	2622
20.168	2549
20.176	2457.99999999996
20.184	2352
20.192	2238
20.2	2123
20.208	2011.99999999995
20.216	1907
20.224	1810
20.232	1722
20.24	1645.99999999997
20.248	1582
20.256	1530
20.264	1490
20.272	1462.99999999999
20.28	1447
20.288	1440
20.296	1440
20.304	1444
20.312	1450
20.32	1455
20.328	1458
20.336	1458
20.344	1455
20.352	1450
20.36	1441
20.368	1428.99999999999
20.376	1415
20.384	1399
20.392	1379
20.4	1356.99999999999
20.408	1335
20.416	1311
20.424	1286
20.432	1259.99999999999
20.44	1234
20.448	1210
20.456	1188
20.464	1166.99999999999
20.472	1148
20.48	1130
20.488	1114
20.496	1102
20.504	1098
20.512	1107
20.52	1139
20.528	1201
20.536	1295
20.544	1422
20.552	1576
20.56	1750
20.568	1932
20.576	2109
20.584	2271
20.592	2406
20.6	2507
20.608	2563
20.616	2577
20.624	2561
20.632	2516
20.64	2447
20.648	2360
20.656	2260
20.664	2154
20.672	2046
20.68	1940
20.688	1838
20.696	1742
20.704	1655
20.712	1579
20.72	1514
20.728	1461
20.736	1423
20.744	1398
20.752	1382
20.76	1375
20.768	1376
20.776	1380
20.784	1387
20.792	1396
20.8	1402
20.808	1406
20.816	1408
20.824	1407
20.832	1404
20.84	1396
20.848	1384
20.856	1369
20.864	1350
20.872	1327
20.88	1304
20.888	1279
20.896	1255
20.904	1231
20.912	1205
20.92	1180
20.928	1156
20.936	1133
20.944	1111
20.952	1089
20.96	1069
20.968	1055
20.976	1054
20.984	1074
20.992	1122
21	1202
21.008	1319
21.016	1471.00000000007
21.024	1648
21.032	1841
21.04	2038
21.048	2225.00000000008
21.056	2391
21.064	2525
21.072	2622
21.08	2679.00000000001
21.088	2698
21.096	2680
21.104	2631
21.112	2557.99999999996
21.12	2467
21.128	2364
21.136	2254
21.144	2141.99999999995
21.152	2031
21.16	1927
21.168	1830
21.176	1740.99999999996
21.184	1666
21.192	1604
21.2	1554
21.208	1514.99999999999
21.216	1488
21.224	1472
21.232	1465
21.24	1466
21.248	1472
21.256	1481
21.264	1491
21.272	1500
21.28	1506
21.288	1509
21.296	1509
21.304	1504
21.312	1495
21.32	1483
21.328	1467
21.336	1447.99999999999
21.344	1427
21.352	1406
21.36	1382
21.368	1356.99999999999
21.376	1333
21.384	1310
21.392	1288
21.4	1267.99999999999
21.408	1250
21.416	1232
21.424	1214
21.432	1199
21.44	1195
21.448	1210
21.456	1252
21.464	1330.00000000004
21.472	1446
21.48	1599
21.488	1785
21.496	1991.00000000009
21.504	2202
21.512	2404
21.52	2586
21.528	2737
21.536	2851
21.544	2924
21.552	2955
21.56	2948
21.568	2908
21.576	2842
21.584	2755
21.592	2655
21.6	2546
21.608	2431
21.616	2316
21.624	2204
21.632	2099
21.64	2005
21.648	1924
21.656	1857
21.664	1805
21.672	1765
21.68	1736
21.688	1717
21.696	1707
21.704	1702
21.712	1700
21.72	1701
21.728	1703
21.736	1704
21.744	1703
21.752	1700
21.76	1694
21.768	1685
21.776	1672
21.784	1655
21.792	1636
21.8	1614
21.808	1590
21.816	1564
21.824	1537
21.832	1510
21.84	1483
21.848	1457
21.856	1432
21.864	1409
21.872	1387
21.88	1363
21.888	1338
21.896	1315
21.904	1300
21.912	1299
21.92	1324
21.928	1383
21.936	1481
21.944	1619
21.952	1794
21.96	1995
21.968	2209
21.976	2422
21.984	2619
21.992	2787
22	2919
22.008	3011
22.016	3061.00000000001
22.024	3070
22.032	3043
22.04	2987
22.048	2907.99999999996
22.056	2813
22.064	2707
22.072	2595
22.08	2480.99999999995
22.088	2367
22.096	2258
22.104	2156
22.112	2062.99999999996
22.12	1982
22.128	1913
22.136	1857
22.144	1812.99999999998
22.152	1782
22.16	1760
22.168	1745
22.176	1736
22.184	1730
22.192	1726
22.2	1721
22.208	1715
22.216	1706
22.224	1692
22.232	1675
22.24	1655.99999999999
22.248	1633
22.256	1607
22.264	1578
22.272	1546.99999999999
22.28	1516
22.288	1483
22.296	1450
22.304	1416.99999999999
22.312	1385
22.32	1353
22.328	1322
22.336	1291.99999999999
22.344	1264
22.352	1238
22.36	1213
22.368	1190.99999999999
22.376	1176
22.384	1173
22.392	1190
22.4	1235.00000000003
22.408	1317
22.416	1436
22.424	1589
22.432	1771.00000000008
22.44	1968
22.448	2167
22.456	2356
22.464	2521.00000000007
22.472	2654
22.48	2746
22.488	2797
22.496	2812
22.504	2793
22.512	2745
22.52	2673
22.528	2584
22.536	2482
22.544	2372
22.552	2260
22.56	2150
22.568	2044
22.576	1945
22.584	1857
22.592	1779
22.6	1711
22.608	1654
22.616	1608
22.624	1573
22.632	1548
22.64	1531
22.648	1521
22.656	1509
22.664	1497
22.672	1490
22.68	1484
22.688	1479
22.696	1473
22.704	1464
22.712	1452
22.72	1438
22.728	1421
22.736	1402
22.744	1380
22.752	1356
22.76	1331
22.768	1305
22.776	1279
22.784	1254
22.792	1229
22.8	1206
22.808	1183
22.816	1161
22.824	1141
22.832	1121
22.84	1101
22.848	1085
22.856	1077
22.864	1083
22.872	1109
22.88	1162
22.888	1246
22.896	1362
22.904	1506
22.912	1671
22.92	1847
22.928	2021
22.936	2182
22.944	2320
22.952	2429
22.96	2505
22.968	2546
22.976	2552
22.984	2528
22.992	2479
23	2410
23.008	2324
23.016	2227.99999999996
23.024	2129
23.032	2028
23.04	1927
23.048	1831.99999999996
23.056	1743
23.064	1665
23.072	1598
23.08	1539.99999999998
23.088	1493
23.096	1459
23.104	1435
23.112	1418.99999999999
23.12	1410
23.128	1406
23.136	1407
23.144	1411
23.152	1414
23.16	1415
23.168	1415
23.176	1412
23.184	1405
23.192	1396
23.2	1384
23.208	1369.99999999999
23.216	1355
23.224	1338
23.232	1318
23.24	1297.99999999999
23.248	1277
23.256	1256
23.264	1234
23.272	1210.99999999999
23.28	1188
23.288	1166
23.296	1146
23.304	1127.99999999999
23.312	1114
23.32	1104
23.328	1102
23.336	1114.00000000001
23.344	1147
23.352	1208
23.36	1300
23.368	1424.00000000006
23.376	1575
23.384	1747
23.392	1928
23.4	2105.00000000008
23.408	2269
23.416	2410
23.424	2520
23.432	2597.00000000002
23.44	2640
23.448	2647
23.456	2623
23.464	2571.99999999997
23.472	2497
23.48	2407
23.488	2309
23.496	2204.99999999995
23.504	2100
23.512	1999
23.52	1903
23.528	1812.99999999996
23.536	1733
23.544	1664
23.552	1605
23.56	1558
23.568	1523
23.576	1500
23.584	1486
23.592	1480
23.6	1480
23.608	1483
23.616	1488
23.624	1493
23.632	1498
23.64	1500
23.648	1499
23.656	1496
23.664	1489
23.672	1479
23.68	1465
23.688	1448
23.696	1429
23.704	1409
23.712	1388
23.72	1366
23.728	1344
23.736	1322
23.744	1301
23.752	1282
23.76	1262
23.768	1242
23.776	1222
23.784	1204
23.792	1193
23.8	1196
23.808	1219
23.816	1270
23.824	1353
23.832	1472
23.84	1622
23.848	1798
23.856	1992
23.864	2190
23.872	2378
23.88	2546
23.888	2685
23.896	2789
23.904	2855
23.912	2883
23.92	2875
23.928	2837
23.936	2774
23.944	2691
23.952	2598
23.96	2497
23.968	2392
23.976	2287
23.984	2186
23.992	2090
24	2002
24.008	1924
24.016	1856.99999999997
24.024	1802
24.032	1759
24.04	1728
24.048	1705.99999999999
24.056	1693
24.064	1687
24.072	1685
24.08	1686
24.088	1687
24.096	1687
24.104	1685
24.112	1680
24.12	1671
24.128	1660
24.136	1646
24.144	1630.99999999999
24.152	1616
24.16	1600
24.168	1582
24.176	1560.99999999999
24.184	1539
24.192	1516
24.2	1492
24.208	1467.99999999999
24.216	1445
24.224	1423
24.232	1401
24.24	1378.99999999999
24.248	1358
24.256	1342
24.264	1337
24.272	1350.00000000001
24.28	1387
24.288	1457
24.296	1564
24.304	1707.00000000007
24.312	1882
24.32	2076
24.328	2278
24.336	2475.00000000008
24.344	2654
24.352	2804
24.36	2921
24.368	3002.00000000002
24.376	3043
24.384	3048
24.392	3020
24.4	2964.99999999997
24.408	2888
24.416	2794
24.424	2690
24.432	2579.99999999995
24.44	2470
24.448	2363
24.456	2261
24.464	2165.99999999996
24.472	2081
24.48	2009
24.488	1948
24.496	1899.99999999998
24.504	1865
24.512	1839
24.52	1821
24.528	1810
24.536	1803
24.544	1799
24.552	1795
24.56	1790
24.568	1782
24.576	1771
24.584	1758
24.592	1742
24.6	1723
24.608	1701
24.616	1675
24.624	1646
24.632	1616
24.64	1585
24.648	1553
24.656	1521
24.664	1490
24.672	1461
24.68	1434
24.688	1406
24.696	1379
24.704	1345
24.712	1306
24.72	1274
24.728	1251
24.736	1241
24.744	1250
24.752	1285
24.76	1352
24.768	1454
24.776	1592
24.784	1759
24.792	1945
24.8	2138
24.808	2325
24.816	2494
24.824	2635
24.832	2744
24.84	2816
24.848	2851
24.856	2850
24.864	2816
24.872	2757
24.88	2678
24.888	2583
24.896	2479
24.904	2369
24.912	2257
24.92	2146
24.928	2040
24.936	1943
24.944	1855
24.952	1778
24.96	1714
24.968	1662
24.976	1621
24.984	1592
24.992	1572
25	1559
25.008	1551
25.016	1545
25.024	1540
25.032	1534
25.04	1526
25.048	1514.99999999999
25.056	1502
25.064	1487
25.072	1472
25.08	1453.99999999999
25.088	1434
25.096	1413
25.104	1390
25.112	1365.99999999999
25.12	1344
25.128	1322
25.136	1299
25.144	1275.99999999999
25.152	1253
25.16	1233
25.168	1213
25.176	1191.99999999999
25.184	1171
25.192	1152
25.2	1136
25.208	1128
25.216	1133
25.224	1157
25.232	1205
25.24	1283.00000000004
25.248	1392
25.256	1527
25.264	1684
25.272	1853.00000000008
25.28	2024
25.288	2185
25.296	2327
25.304	2441.00000000004
25.312	2523
25.32	2570
25.328	2582
25.336	2561.99999999999
25.344	2514
25.352	2445
25.36	2359
25.368	2260.99999999996
25.376	2158
25.384	2054
25.392	1953
25.4	1855.99999999996
25.408	1766
25.416	1687
25.424	1618
25.432	1557.99999999998
25.44	1510
25.448	1474
25.456	1449
25.464	1434
25.472	1426
25.48	1424
25.488	1425
25.496	1428
25.504	1430
25.512	1430
25.52	1427
25.528	1422
25.536	1415
25.544	1406
25.552	1393
25.56	1378.99999999999
25.568	1363
25.576	1345
25.584	1326
25.592	1304.99999999999
25.6	1283
25.608	1260
25.616	1238
25.624	1218
25.632	1198
25.64	1178
25.648	1159
25.656	1142
25.664	1126
25.672	1115
25.68	1114
25.688	1127
25.696	1160
25.704	1218
25.712	1307
25.72	1424
25.728	1563
25.736	1720
25.744	1886
25.752	2053
25.76	2209
25.768	2345
25.776	2454
25.784	2529
25.792	2570
25.8	2576
25.808	2550
25.816	2498
25.824	2425
25.832	2336
25.84	2237
25.848	2133
25.856	2028
25.864	1926
25.872	1829
25.88	1742
25.888	1666
25.896	1601
25.904	1548
25.912	1508
25.92	1482
25.928	1466
25.936	1458
25.944	1457
25.952	1460
25.96	1463
25.968	1466
25.976	1467
25.984	1468
25.992	1467
26	1464
26.008	1458
26.016	1449
26.024	1437
26.032	1422
26.04	1404
26.048	1383.99999999999
26.056	1362
26.064	1340
26.072	1318
26.08	1294.99999999999
26.088	1273
26.096	1252
26.104	1233
26.112	1216.99999999999
26.12	1200
26.128	1183
26.136	1172
26.144	1170
26.152	1182
26.16	1215
26.168	1277
26.176	1370.00000000005
26.184	1494
26.192	1647
26.2	1822
26.208	2007.00000000008
26.216	2191
26.224	2363
26.232	2512
26.24	2631.00000000004
26.248	2717
26.256	2766
26.264	2780
26.272	2760.99999999999
26.28	2714
26.288	2643
26.296	2555
26.304	2454.99999999995
26.312	2347
26.32	2238
26.328	2130
26.336	2026.99999999996
26.344	1934
26.352	1850
26.36	1778
26.368	1719.99999999998
26.376	1674
26.384	1639
26.392	1616
26.4	1603
26.408	1598
26.416	1597
26.424	1601
26.432	1606
26.44	1610
26.448	1613
26.456	1614
26.464	1611
26.472	1605
26.48	1596
26.488	1584
26.496	1569.99999999999
26.504	1554
26.512	1536
26.52	1517
26.528	1497.99999999999
26.536	1479
26.544	1461
26.552	1442
26.56	1421.99999999999
26.568	1402
26.576	1381
26.584	1361
26.592	1343.99999999999
26.6	1332
26.608	1332
26.616	1350
26.624	1391.00000000002
26.632	1463
26.64	1570
26.648	1710
26.656	1880
26.664	2070
26.672	2267
26.68	2459
26.688	2634
26.696	2781
26.704	2895
26.712	2972
26.72	3010
26.728	3013
26.736	2985
26.744	2929
26.752	2849
26.76	2750
26.768	2637
26.776	2518
26.784	2397
26.792	2280
26.8	2170
26.808	2069
26.816	1981
26.824	1906
26.832	1843
26.84	1796
26.848	1760
26.856	1734
26.864	1718
26.872	1709
26.88	1705
26.888	1704
26.896	1704
26.904	1703
26.912	1700
26.92	1693
26.928	1684
26.936	1672
26.944	1658
26.952	1642
26.96	1623
26.968	1602
26.976	1579
26.984	1556
26.992	1533
27	1511
27.008	1488
27.016	1463.99999999999
27.024	1441
27.032	1420
27.04	1399
27.048	1377.99999999999
27.056	1356
27.064	1338
27.072	1330
27.08	1340.00000000001
27.088	1376
27.096	1443
27.104	1547
27.112	1687.00000000007
27.12	1857
27.128	2047
27.136	2244
27.144	2436.00000000008
27.152	2611
27.16	2759
27.168	2873
27.176	2950.00000000002
27.184	2987
27.192	2986
27.2	2949
27.208	2884.99999999997
27.216	2799
27.224	2695
27.232	2580
27.24	2457.99999999995
27.248	2334
27.256	2213
27.264	2099
27.272	1992.99999999996
27.28	1899
27.288	1818
27.296	1751
27.304	1699.99999999998
27.312	1660
27.32	1629
27.328	1607
27.336	1591.99999999999
27.344	1581
27.352	1574
27.36	1568
27.368	1562
27.376	1554
27.384	1544
27.392	1533
27.4	1520.99999999999
27.408	1506
27.416	1487
27.424	1465
27.432	1440.99999999999
27.44	1417
27.448	1393
27.456	1368
27.464	1340.99999999999
27.472	1315
27.48	1290
27.488	1266
27.496	1242.99999999999
27.504	1219
27.512	1194
27.52	1171
27.528	1152.99999999999
27.536	1143
27.544	1145
27.552	1165
27.56	1209.00000000002
27.568	1280
27.576	1382
27.584	1516
27.592	1676.00000000007
27.6	1853
27.608	2036
27.616	2211
27.624	2369.00000000006
27.632	2501
27.64	2599
27.648	2658
27.656	2680
27.664	2667
27.672	2623
27.68	2554
27.688	2464
27.696	2359
27.704	2245
27.712	2127
27.72	2010
27.728	1899
27.736	1799
27.744	1709
27.752	1631
27.76	1567
27.768	1515
27.776	1473
27.784	1441
27.792	1420
27.8	1408
27.808	1402
27.816	1401
27.824	1404
27.832	1406
27.84	1407
27.848	1407
27.856	1405
27.864	1401
27.872	1394
27.88	1383
27.888	1370
27.896	1355
27.904	1338
27.912	1318
27.92	1298
27.928	1278
27.936	1257
27.944	1235
27.952	1211
27.96	1187
27.968	1165
27.976	1145
27.984	1127
27.992	1112
28	1103
28.008	1104
28.016	1118.00000000001
28.024	1153
28.032	1214
28.04	1302
28.048	1419.00000000006
28.056	1562
28.064	1722
28.072	1892
28.08	2061.00000000007
28.088	2216
28.096	2347
28.104	2448
28.112	2513.00000000002
28.12	2543
28.128	2538
28.136	2501
28.144	2437.99999999997
28.152	2353
28.16	2253
28.168	2143
28.176	2030.99999999995
28.184	1921
28.192	1816
28.2	1719
28.208	1633.99999999997
28.216	1561
28.224	1500
28.232	1451
28.24	1415.99999999999
28.248	1391
28.256	1376
28.264	1369
28.272	1369
28.28	1372
28.288	1376
28.296	1381
28.304	1386
28.312	1389
28.32	1390
28.328	1388
28.336	1384
28.344	1377
28.352	1368
28.36	1355
28.368	1336.99999999999
28.376	1315
28.384	1292
28.392	1268
28.4	1243.99999999999
28.408	1219
28.416	1194
28.424	1170
28.432	1148.99999999999
28.44	1131
28.448	1115
28.456	1103
28.464	1099
28.472	1109
28.48	1139
28.488	1194
28.496	1279.00000000004
28.504	1399
28.512	1549
28.52	1722
28.528	1908.00000000008
28.536	2096
28.544	2275
28.552	2434
28.56	2562.00000000005
28.568	2654
28.576	2708
28.584	2722
28.592	2698.99999999999
28.6	2646
28.608	2567
28.616	2468
28.624	2353.99999999995
28.632	2233
28.64	2049
28.648	1930
28.656	1821.99999999994
28.664	1644
28.672	1578
28.68	1527
28.688	1469
28.696	1457
28.704	1454
28.712	1459
28.72	1466
28.728	1472
28.736	1476
28.744	1477
28.752	1475
28.76	1469
28.768	1460
28.776	1436
28.784	1404
28.792	1379
28.8	1357
28.808	1327
28.816	1306
28.824	1285
28.832	1253
28.84	1233
28.848	1213
28.856	1194
28.864	1173
28.872	1154
28.88	1140
28.888	1135
28.896	1147
28.904	1181
28.912	1244
28.92	1341
28.928	1475
28.936	1643
28.944	1838
28.952	2049
28.96	2262
28.968	2461
28.976	2637
28.984	2782
28.992	2887
29	2948
29.008	2968
29.016	2950.99999999999
29.024	2900
29.032	2822
29.04	2724
29.048	2609.99999999995
29.056	2486
29.064	2359
29.072	2233
29.08	2111.99999999995
29.088	2001
29.096	1903
29.104	1820
29.112	1751.99999999997
29.12	1699
29.128	1661
29.136	1635
29.144	1619
29.152	1611
29.16	1609
29.168	1610
29.176	1612
29.184	1614
29.192	1614
29.2	1611
29.208	1605
29.216	1596
29.224	1583
29.232	1567
29.24	1549.99999999999
29.248	1531
29.256	1511
29.264	1492
29.272	1470.99999999999
29.28	1449
29.288	1426
29.296	1401
29.304	1376.99999999999
29.312	1353
29.32	1328
29.328	1303
29.336	1280.99999999999
29.344	1265
29.352	1265
29.36	1289
29.368	1343.00000000003
29.376	1433
29.384	1562
29.392	1727
29.4	1922.00000000009
29.408	2134
29.416	2350
29.424	2555
29.432	2737.00000000007
29.44	2887
29.448	2998
29.456	3066
29.464	3092
29.472	3079
29.48	3031
29.488	2953
29.496	2851.99999999995
29.504	2734
29.512	2605
29.52	2470
29.528	2333.99999999994
29.536	2205
29.544	2087
29.552	1982
29.56	1890.99999999996
29.568	1815
29.576	1756
29.584	1711
29.592	1677.99999999999
29.6	1655
29.608	1640
29.616	1629
29.624	1622
29.632	1616
29.64	1611
29.648	1606
29.656	1598
29.664	1586
29.672	1570
29.68	1552
29.688	1530.99999999999
29.696	1508
29.704	1482
29.712	1454
29.72	1425
29.728	1395
29.736	1364
29.744	1332
29.752	1299
29.76	1268
29.768	1238
29.776	1208
29.784	1178
29.792	1150
29.8	1126
29.808	1109
29.816	1110
29.824	1136
29.832	1194
29.84	1288
29.848	1419
29.856	1585
29.864	1776
29.872	1981
29.88	2185
29.888	2372
29.896	2532
29.904	2658
29.912	2744
29.92	2788
29.928	2791
29.936	2755
29.944	2686
29.952	2591
29.96	2478
29.968	2352
29.976	2220
29.984	2089
29.992	1964
30	1847
30.008	1742
30.016	1649.99999999996
30.024	1574
30.032	1513
30.04	1465
30.048	1428.99999999999
30.056	1405
30.064	1389
30.072	1378
30.08	1371
30.088	1368
30.096	1366
30.104	1364
30.112	1360
30.12	1354
30.128	1347
30.136	1339
30.144	1327.99999999999
30.152	1312
30.16	1293
30.168	1273
30.176	1251.99999999999
30.184	1230
30.192	1207
30.2	1182
30.208	1154.99999999999
30.216	1129
30.224	1103
30.232	1078
30.24	1053.99999999999
30.248	1033
30.256	1015
30.264	1002
30.272	1000
30.28	1015
30.288	1051
30.296	1112
30.304	1203.00000000005
30.312	1326
30.32	1476
30.328	1647
30.336	1830.00000000008
30.344	2012
30.352	2182
30.36	2328
30.368	2440.00000000004
30.376	2512
30.384	2542
30.392	2531
30.4	2482.99999999997
30.408	2405
30.416	2305
30.424	2188
30.432	2060.99999999994
30.44	1934
30.448	1811
30.456	1697
30.464	1593.99999999996
30.472	1504
30.48	1429
30.488	1370
30.496	1324.99999999998
30.504	1294
30.512	1273
30.52	1261
30.528	1257
30.536	1258
30.544	1260
30.552	1263
30.56	1266
30.568	1267
30.576	1267
30.584	1264
30.592	1257
30.6	1248
30.608	1237
30.616	1224
30.624	1207.99999999999
30.632	1191
30.64	1171
30.648	1148
30.656	1122.99999999999
30.664	1099
30.672	1075
30.68	1051
30.688	1027.99999999999
30.696	1005
30.704	986
30.712	972
30.72	966
30.728	971
30.736	994
30.744	1041
30.752	1118
30.76	1227
30.768	1367
30.776	1533
30.784	1719
30.792	1913
30.8	2101
30.808	2270
30.816	2394
30.824	2471
30.832	2517
30.84	2529
30.848	2507
30.856	2455
30.864	2378
30.872	2282
30.88	2174
30.888	2058
30.896	1942
30.904	1831
30.912	1727
30.92	1634
30.928	1555
30.936	1491
30.944	1442
30.952	1407
30.96	1384
30.968	1370
30.976	1364
30.984	1363
30.992	1366
31	1371
31.008	1378
31.016	1383
31.024	1386
31.032	1387
31.04	1387
31.048	1383
31.056	1375
31.064	1364
31.072	1350
31.08	1333.99999999999
31.088	1315
31.096	1293
31.104	1269
31.112	1245.99999999999
31.12	1223
31.128	1201
31.136	1180
31.144	1159.99999999999
31.152	1142
31.16	1126
31.168	1115
31.176	1115
31.184	1132
31.192	1172
31.2	1241
31.208	1343.00000000005
31.216	1477
31.224	1639
31.232	1822
31.24	2014.00000000008
31.248	2203
31.256	2379
31.264	2528
31.272	2641.00000000004
31.28	2716
31.288	2750
31.296	2746
31.304	2707.99999999998
31.312	2640
31.32	2547
31.328	2437
31.336	2315.99999999994
31.344	2190
31.352	2065
31.36	1949
31.368	1844.99999999996
31.376	1754
31.384	1678
31.392	1620
31.4	1577.99999999998
31.408	1549
31.416	1532
31.424	1522
31.432	1518
31.44	1519
31.448	1525
31.456	1533
31.464	1541
31.472	1549
31.48	1556
31.488	1559
31.496	1559
31.504	1555
31.512	1545
31.52	1530
31.528	1511.99999999999
31.536	1491
31.544	1469
31.552	1447
31.56	1424.99999999999
31.568	1402
31.576	1377
31.584	1353
31.592	1330.99999999999
31.6	1311
31.608	1292
31.616	1276
31.624	1270
31.632	1282
31.64	1318
31.648	1383
31.656	1483.00000000005
31.664	1618
31.672	1782
31.68	1970
31.688	2171.00000000009
31.696	2370
31.704	2553
31.712	2710
31.72	2831.00000000004
31.728	2913
31.736	2953
31.744	2953
31.752	2917
31.76	2849
31.768	2756
31.776	2644
31.784	2520
31.792	2391
31.8	2261
31.808	2135
31.816	2019
31.824	1916
31.832	1829
31.84	1759
31.848	1704
31.856	1664
31.864	1638
31.872	1622
31.88	1614
31.888	1612
31.896	1613
31.904	1616
31.912	1617
31.92	1616
31.928	1612
31.936	1605
31.944	1595
31.952	1583
31.96	1571
31.968	1557
31.976	1540
31.984	1520
31.992	1499
32	1477
32.008	1452
32.016	1425
32.024	1397
32.032	1366.99999999997
32.04	1338
32.048	1309
32.056	1281
32.064	1258
32.072	1242
32.08	1239
32.088	1259
32.096	1307.00000000005
32.104	1388
32.112	1505
32.12	1656
32.128	1834
32.136	2029
32.144	2228
32.152	2416
32.16	2580.00000000013
32.168	2711
32.176	2803
32.184	2852
32.192	2859
32.2	2827
32.208	2758
32.216	2660
32.224	2541.99999999989
32.232	2410
32.24	2270
32.248	2129
32.256	1994
32.264	1869
32.272	1758
32.28	1662
32.288	1582.99999999994
32.296	1519
32.304	1469
32.312	1433
32.32	1407
32.328	1389
32.336	1378
32.344	1370
32.352	1365
32.36	1362
32.368	1358
32.376	1353
32.384	1346
32.392	1336
32.4	1326
32.408	1316
32.416	1302.99999999999
32.424	1287
32.432	1268
32.44	1246
32.448	1222
32.456	1195
32.464	1166
32.472	1136
32.48	1106.99999999997
32.488	1078
32.496	1047
32.504	1019
32.512	995
32.52	976
32.528	966
32.536	969
32.544	991.000000000027
32.552	1039
32.56	1118
32.568	1230
32.576	1375
32.584	1547
32.592	1736
32.6	1929
32.608	2113.00000000015
32.616	2274
32.624	2400
32.632	2486
32.64	2528
32.648	2527
32.656	2487
32.664	2412
32.672	2309.9999999999
32.68	2189
32.688	2057
32.696	1920
32.704	1784
32.712	1657
32.72	1544
32.728	1446
32.736	1364.99999999994
32.744	1301
32.752	1253
32.76	1221
32.768	1202
32.776	1192
32.784	1190
32.792	1193
32.8	1198
32.808	1203
32.816	1208
32.824	1210
32.832	1210
32.84	1208
32.848	1204
32.856	1197
32.864	1218
32.872	1251
32.88	1259
32.888	1253
32.896	1239
32.904	1221
32.912	1201
32.92	1179
32.928	1156
32.936	1134
32.944	1113
32.952	1094
32.96	1077
32.968	1063
32.976	1054
32.984	1055
32.992	1072
33	1108
33.008	1170
33.016	1262
33.024	1383
33.032	1529.00000000014
33.04	1695
33.048	1869
33.056	2039
33.064	2194
33.072	2322
33.08	2417
33.088	2474
33.096	2491
33.104	2471
33.112	2416
33.12	2333
33.128	2230
33.136	2111
33.144	1985
33.152	1858
33.16	1735.9999999999
33.168	1625
33.176	1529
33.184	1449
33.192	1385
33.2	1337
33.208	1303
33.216	1281
33.224	1270
33.232	1268
33.24	1272
33.248	1279
33.256	1288
33.264	1296
33.272	1302
33.28	1305
33.288	1307
33.296	1307
33.304	1304
33.312	1296
33.32	1285
33.328	1271
33.336	1253
33.344	1234
33.352	1212.99999999998
33.36	1191
33.368	1168
33.376	1144
33.384	1120
33.392	1097
33.4	1076
33.408	1055
33.416	1036.99999999999
33.424	1027
33.432	1030
33.44	1051
33.448	1097
33.456	1171
33.464	1276
33.472	1411
33.48	1572.00000000015
33.488	1749
33.496	1934
33.504	2113
33.512	2274
33.52	2406
33.528	2503
33.536	2561
33.544	2577
33.552	2553
33.56	2496
33.568	2410
33.576	2301
33.584	2180
33.592	2053
33.6	1925
33.608	1801.9999999999
33.616	1690
33.624	1592
33.632	1509
33.64	1442
33.648	1390
33.656	1353
33.664	1331
33.672	1319.99999999999
33.68	1315
33.688	1316
33.696	1321
33.704	1329
33.712	1335
33.72	1339
33.728	1342
33.736	1342
33.744	1340
33.752	1336
33.76	1329
33.768	1319
33.776	1305
33.784	1288
33.792	1269
33.8	1250
33.808	1231
33.816	1213
33.824	1195
33.832	1176
33.84	1155
33.848	1136
33.856	1117
33.864	1100
33.872	1089
33.88	1092
33.888	1116
33.896	1169
33.904	1256
33.912	1379
33.92	1537
33.928	1721
33.936	1920
33.944	2120
33.952	2308
33.96	2471
33.968	2601
33.976	2691
33.984	2738
33.992	2743
34	2710
34.008	2643
34.016	2549
34.024	2435
34.032	2307.99999999988
34.04	2175
34.048	2045
34.056	1922
34.064	1810
34.072	1712
34.08	1630
34.088	1565
34.096	1515.99999999996
34.104	1481
34.112	1461
34.12	1451
34.128	1447
34.136	1447
34.144	1449
34.152	1452
34.16	1455
34.168	1458
34.176	1458
34.184	1456
34.192	1451
34.2	1445
34.208	1437
34.216	1426
34.224	1411.99999999999
34.232	1395
34.24	1375
34.248	1353
34.256	1332
34.264	1310
34.272	1286
34.28	1261
34.288	1237.99999999998
34.296	1214
34.304	1191
34.312	1172
34.32	1160
34.328	1165
34.336	1194
34.344	1254
34.352	1353.0000000001
34.36	1492
34.368	1665
34.376	1864
34.384	2075
34.392	2284
34.4	2477
34.408	2642
34.416	2766.00000000009
34.424	2847
34.432	2884
34.44	2876
34.448	2829
34.456	2751
34.464	2647
34.472	2523
34.48	2388.99999999988
34.488	2252
34.496	2116
34.504	1986
34.512	1866
34.52	1761
34.528	1673
34.536	1601
34.544	1543.99999999996
34.552	1500
34.56	1471
34.568	1455
34.576	1447
34.584	1444
34.592	1442
34.6	1441
34.608	1441
34.616	1440
34.624	1436
34.632	1429
34.64	1420
34.648	1407
34.656	1392
34.664	1374
34.672	1353.99999999998
34.68	1333
34.688	1310
34.696	1283
34.704	1254
34.712	1223
34.72	1191
34.728	1158
34.736	1124.99999999997
34.744	1094
34.752	1064
34.76	1037
34.768	1018
34.776	1011
34.784	1026
34.792	1071
34.8	1152.00000000009
34.808	1270
34.816	1425
34.824	1609
34.832	1809
34.84	2013
34.848	2204
34.856	2367
34.864	2495
34.872	2580
34.88	2620
34.888	2616
34.896	2571
34.904	2493
34.912	2409
34.92	2317
34.928	2198
34.936	2065
34.944	1931
34.952	1803
34.96	1685
34.968	1581
34.976	1493
34.984	1421
34.992	1366
35	1328
35.008	1305
35.016	1293
35.024	1289
35.032	1290
35.04	1293
35.048	1298
35.056	1303
35.064	1308
35.072	1310
35.08	1311
35.088	1311
35.096	1309
35.104	1304
35.112	1296
35.12	1286
35.128	1273
35.136	1257
35.144	1236
35.152	1212
35.16	1187.99999999998
35.168	1163
35.176	1137
35.184	1111
35.192	1087
35.2	1065
35.208	1045
35.216	1030
35.224	1024
35.232	1033
35.24	1065
35.248	1126
35.256	1220
35.264	1349
35.272	1509
35.28	1691
35.288	1885.00000000017
35.296	2076
35.304	2248
35.312	2390
35.32	2495
35.328	2558
35.336	2575
35.344	2551
35.352	2490.99999999994
35.36	2401
35.368	2289
35.376	2164
35.384	2031
35.392	1900
35.4	1776
35.408	1662
35.416	1561.99999999992
35.424	1478
35.432	1411
35.44	1362
35.448	1329
35.456	1310
35.464	1300
35.472	1298
35.48	1302
35.488	1309
35.496	1317
35.504	1325
35.512	1333
35.52	1341
35.528	1347
35.536	1350
35.544	1349
35.552	1343
35.56	1333
35.568	1319
35.576	1301
35.584	1281
35.592	1259
35.6	1236
35.608	1210.99999999998
35.616	1185
35.624	1159
35.632	1133
35.64	1109
35.648	1088
35.656	1069
35.664	1058
35.672	1057
35.68	1073
35.688	1113
35.696	1182
35.704	1283
35.712	1417
35.72	1580
35.728	1763
35.736	1955.00000000017
35.744	2140
35.752	2303
35.76	2437
35.768	2534
35.776	2587
35.784	2598
35.792	2571
35.8	2509.99999999994
35.808	2420
35.816	2309
35.824	2184
35.832	2052
35.84	1922
35.848	1799
35.856	1688
35.864	1592
35.872	1514
35.88	1454
35.888	1409
35.896	1380
35.904	1364
35.912	1357
35.92	1356
35.928	1359
35.936	1366
35.944	1372
35.952	1377
35.96	1382
35.968	1385
35.976	1386
35.984	1384
35.992	1380
36	1373
36.008	1364
36.016	1351
36.024	1336
36.032	1318.99999999998
36.04	1301
36.048	1281
36.056	1260
36.064	1237
36.072	1214
36.08	1192
36.088	1171
36.096	1150.99999999998
36.104	1134
36.112	1123
36.12	1125
36.128	1148
36.136	1198
36.144	1282
36.152	1403
36.16	1558.00000000015
36.168	1739
36.176	1938
36.184	2139
36.192	2329
36.2	2494
36.208	2623
36.216	2712
36.224	2756
36.232	2757
36.24	2720
36.248	2648
36.256	2551
36.264	2436
36.272	2308
36.28	2175
36.288	2043.99999999989
36.296	1922
36.304	1812
36.312	1717
36.32	1639
36.328	1578
36.336	1536
36.344	1510
36.352	1497
36.36	1495
36.368	1499
36.376	1507
36.384	1517
36.392	1526
36.4	1533
36.408	1540
36.416	1544
36.424	1546
36.432	1546
36.44	1543
36.448	1539
36.456	1533
36.464	1523
36.472	1510
36.48	1493.99999999998
36.488	1475
36.496	1454
36.504	1432
36.512	1411
36.52	1389
36.528	1364
36.536	1338
36.544	1313.99999999998
36.552	1293
36.56	1281
36.568	1287
36.576	1319
36.584	1384
36.592	1487
36.6	1630
36.608	1806.00000000017
36.616	2007
36.624	2221
36.632	2429
36.64	2616
36.648	2771
36.656	2887
36.664	2958
36.672	2984
36.68	2968
36.688	2915
36.696	2833
36.704	2727
36.712	2606
36.72	2477
36.728	2347
36.736	2219.99999999989
36.744	2101
36.752	1995
36.76	1902
36.768	1824
36.776	1762
36.784	1715
36.792	1682
36.8	1659.99999999999
36.808	1649
36.816	1646
36.824	1646
36.832	1648
36.84	1650
36.848	1651
36.856	1651
36.864	1648
36.872	1643
36.88	1637
36.888	1629
36.896	1619
36.904	1607
36.912	1593
36.92	1576
36.928	1558
36.936	1539
36.944	1518
36.952	1495
36.96	1486
36.968	1483
36.976	1470
36.984	1451
36.992	1431
37	1413
37.008	1402
37.016	1405
37.024	1433
37.032	1493.00000000007
37.04	1591
37.048	1727
37.056	1896
37.064	2088
37.072	2289
37.08	2484
37.088	2657
37.096	2798.0000000001
37.104	2898
37.112	2956
37.12	2972
37.128	2948
37.136	2890
37.144	2805
37.152	2699
37.16	2577.99999999989
37.168	2449
37.176	2319
37.184	2192
37.192	2072
37.2	1963
37.208	1869
37.216	1791
37.224	1727.99999999995
37.232	1678
37.24	1640
37.248	1613
37.256	1597
37.264	1589
37.272	1585
37.28	1583
37.288	1582
37.296	1581
37.304	1579
37.312	1573
37.32	1565
37.328	1555
37.336	1542
37.344	1526
37.352	1506.99999999998
37.36	1487
37.368	1466
37.376	1442
37.384	1416
37.392	1390
37.4	1366
37.408	1343
37.416	1319.99999999998
37.424	1296
37.432	1272
37.44	1249
37.448	1228
37.456	1209
37.464	1200
37.472	1208
37.48	1241.00000000004
37.488	1306
37.496	1406
37.504	1542
37.512	1709
37.52	1896
37.528	2087
37.536	2269
37.544	2427.00000000012
37.552	2550
37.56	2632
37.568	2673
37.576	2675
37.584	2641
37.592	2576
37.6	2486
37.608	2379.9999999999
37.616	2264
37.624	2145
37.632	2029
37.64	1918
37.648	1817
37.656	1729
37.664	1654
37.672	1592.99999999995
37.68	1546
37.688	1512
37.696	1490
37.704	1478
37.712	1474
37.72	1474
37.728	1477
37.736	1483
37.744	1488
37.752	1490
37.76	1490
37.768	1487
37.776	1483
37.784	1478
37.792	1471
37.8	1462.99999999999
37.808	1453
37.816	1441
37.824	1426
37.832	1407
37.84	1387
37.848	1366
37.856	1344
37.864	1321.99999999998
37.872	1300
37.88	1279
37.888	1259
37.896	1240
37.904	1224
37.912	1215
37.92	1220
37.928	1244
37.936	1293
37.944	1373
37.952	1486
37.96	1630
37.968	1797
37.976	1976
37.984	2153
37.992	2315
38	2449
38.008	2547
38.016	2606
38.024	2625
38.032	2607.99999999998
38.04	2558
38.048	2481
38.056	2385
38.064	2276
38.072	2161
38.08	2047
38.088	1938
38.096	1837.99999999992
38.104	1749
38.112	1675
38.12	1617
38.128	1573
38.136	1542
38.144	1521
38.152	1510
38.16	1507
38.168	1510
38.176	1514
38.184	1518
38.192	1523
38.2	1528
38.208	1530
38.216	1530
38.224	1527
38.232	1523
38.24	1517
38.248	1508
38.256	1496
38.264	1484
38.272	1472
38.28	1458
38.288	1441.99999999998
38.296	1423
38.304	1403
38.312	1383
38.32	1363
38.328	1343
38.336	1322
38.344	1301
38.352	1284.99999999999
38.36	1276
38.368	1278
38.376	1299
38.384	1346
38.392	1422
38.4	1532
38.408	1674
38.416	1839.00000000015
38.424	2018
38.432	2197
38.44	2363
38.448	2504
38.456	2610
38.464	2676
38.472	2703
38.48	2692.99999999999
38.488	2649
38.496	2578
38.504	2486
38.512	2381
38.52	2270
38.528	2158
38.536	2050
38.544	1948.99999999992
38.552	1859
38.56	1783
38.568	1722
38.576	1674
38.584	1639
38.592	1615
38.6	1600
38.608	1593
38.616	1592
38.624	1594
38.632	1598
38.64	1601
38.648	1604
38.656	1605
38.664	1604
38.672	1600
38.68	1593
38.688	1585
38.696	1576
38.704	1563
38.712	1548
38.72	1531
38.728	1513
38.736	1493.99999999998
38.744	1474
38.752	1454
38.76	1434
38.768	1414
38.776	1395
38.784	1377
38.792	1359
38.8	1342.99999999999
38.808	1332
38.816	1332
38.824	1352
38.832	1399
38.84	1479
38.848	1595
38.856	1745
38.864	1922.00000000016
38.872	2114
38.88	2305
38.888	2480
38.896	2628
38.904	2742
38.912	2816
38.92	2849
38.928	2845
38.936	2807
38.944	2741
38.952	2655
38.96	2556
38.968	2449
38.976	2339
38.984	2231
38.992	2129
39	2036
39.008	1890
39.016	1810
39.024	1754
39.032	1692.99999999998
39.04	1682
39.048	1680
39.056	1690
39.064	1697
39.072	1704
39.08	1712
39.088	1711
39.096	1705.99999999999
39.104	1695
39.112	1684
39.12	1669
39.128	1653
39.136	1635
39.144	1616
39.152	1597
39.16	1577.99999999998
39.168	1556
39.176	1533
39.184	1512
39.192	1490
39.2	1467
39.208	1443
39.216	1419
39.224	1399.99999999999
39.232	1392
39.24	1404
39.248	1444
39.256	1520
39.264	1635
39.272	1789
39.28	1975
39.288	2180.00000000018
39.296	2388
39.304	2581
39.312	2746
39.32	2874
39.328	2960
39.336	3002
39.344	3004
39.352	2971.99999999996
39.36	2910
39.368	2825
39.376	2724
39.384	2612
39.392	2496
39.4	2379
39.408	2266
39.416	2160.99999999991
39.424	2069
39.432	1990
39.44	1923
39.448	1870
39.456	1830
39.464	1803
39.472	1787
39.48	1776.99999999999
39.488	1771
39.496	1767
39.504	1762
39.512	1755
39.52	1747
39.528	1737
39.536	1725
39.544	1710.99999999999
39.552	1694
39.56	1674
39.568	1653
39.576	1631
39.584	1609
39.592	1586
39.6	1560
39.608	1533.99999999998
39.616	1509
39.624	1485
39.632	1461
39.64	1436
39.648	1409
39.656	1382
39.664	1353
39.672	1323.99999999998
39.68	1298
39.688	1283
39.696	1288
39.704	1321
39.712	1390
39.72	1498
39.728	1644
39.736	1820.00000000016
39.744	2014
39.752	2208
39.76	2386
39.768	2535
39.776	2647
39.784	2717
39.792	2746
39.8	2735.99999999999
39.808	2691
39.816	2619
39.824	2527
39.832	2422
39.84	2308
39.848	2191
39.856	2077
39.864	1968.99999999991
39.872	1869
39.88	1780
39.888	1704
39.896	1641
39.904	1591
39.912	1553
39.92	1527
39.928	1509.99999999999
39.936	1499
39.944	1494
39.952	1491
39.96	1490
39.968	1488
39.976	1484
39.984	1477
39.992	1468
40	1456
40.008	1441
40.016	1424
40.024	1405
40.032	1385.99999999998
40.04	1366
40.048	1346
40.056	1325
40.064	1304
40.072	1284
40.08	1263
40.088	1241
40.096	1219.99999999998
40.104	1199
40.112	1179
40.12	1160
40.128	1141
40.136	1125
40.144	1117
40.152	1122
40.16	1146.00000000003
40.168	1196
40.176	1278
40.184	1395
40.192	1542
40.2	1709
40.208	1886
40.216	2058
40.224	2212.00000000012
40.232	2336
40.24	2423
40.248	2470
40.256	2478
40.264	2451
40.272	2394
40.28	2313
40.288	2216.99999999991
40.296	2112
40.304	2002
40.312	1895
40.32	1795
40.328	1703
40.336	1622
40.344	1553
40.352	1496.99999999996
40.36	1454
40.368	1424
40.376	1405
40.384	1396
40.392	1394
40.4	1396
40.408	1399
40.416	1402
40.424	1403
40.432	1403
40.44	1401
40.448	1397
40.456	1391
40.464	1384
40.472	1376
40.48	1365.99999999999
40.488	1354
40.496	1341
40.504	1327
40.512	1312
40.52	1295
40.528	1276
40.536	1255
40.544	1233.99999999998
40.552	1211
40.56	1190
40.568	1170
40.576	1151
40.584	1135
40.592	1122
40.6	1115
40.608	1121.00000000001
40.616	1146
40.624	1196
40.632	1277
40.64	1393
40.648	1538
40.656	1703
40.664	1880
40.672	2051.00000000014
40.68	2204
40.688	2329
40.696	2420
40.704	2472
40.712	2486
40.72	2466
40.728	2417
40.736	2344.99999999993
40.744	2255
40.752	2154
40.76	2048
40.768	1942
40.776	1840
40.784	1747
40.792	1665
40.8	1595.99999999995
40.808	1541
40.816	1499
40.824	1469
40.832	1451
40.84	1442
40.848	1438
40.856	1439
40.864	1444
40.872	1450
40.88	1455
40.888	1458
40.896	1459
40.904	1459
40.912	1456
40.92	1449
40.928	1439.99999999999
40.936	1427
40.944	1412
40.952	1396
40.96	1379
40.968	1361
40.976	1341
40.984	1320
40.992	1298
41	1276
41.008	1255
41.016	1234
41.024	1207
41.032	1178.99999999998
41.04	1156
41.048	1137
41.056	1126
41.064	1129
41.072	1155
41.08	1209
41.088	1297
41.096	1420.00000000012
41.104	1572
41.112	1745
41.12	1929
41.128	2109
41.136	2270
41.144	2401
41.152	2497
41.16	2554.00000000002
41.168	2570
41.176	2551
41.184	2503
41.192	2432
41.2	2345
41.208	2248
41.216	2144
41.224	2038.99999999991
41.232	1939
41.24	1845
41.248	1761
41.256	1690
41.264	1632
41.272	1588
41.28	1557
41.288	1537.99999999999
41.296	1529
41.304	1529
41.312	1533
41.32	1541
41.328	1551
41.336	1560
41.344	1566
41.352	1569
41.36	1569
41.368	1565
41.376	1558
41.384	1548
41.392	1536
41.4	1521
41.408	1505
41.416	1487.99999999998
41.424	1469
41.432	1450
41.44	1430
41.448	1410
41.456	1391
41.464	1375
41.472	1359
41.48	1341.99999999998
41.488	1324
41.496	1306
41.504	1290
41.512	1282
41.52	1290
41.528	1321
41.536	1384
41.544	1483.0000000001
41.552	1618
41.56	1783
41.568	1969
41.576	2162
41.584	2347
41.592	2511
41.6	2644
41.608	2739.00000000006
41.616	2794
41.624	2809
41.632	2790
41.64	2741
41.648	2670
41.656	2583
41.664	2487
41.672	2385.99999999991
41.68	2284
41.688	2184
41.696	2090
41.704	2007
41.712	1936
41.72	1877
41.728	1832
41.736	1796.99999999998
41.744	1774
41.752	1759
41.76	1750
41.768	1744
41.776	1739
41.784	1735
41.792	1731
41.8	1724.99999999999
41.808	1716
41.816	1707
41.824	1699
41.832	1689
41.84	1678
41.848	1663
41.856	1645
41.864	1625.99999999998
41.872	1606
41.88	1585
41.888	1564
41.896	1542
41.904	1519
41.912	1497
41.92	1477
41.928	1456.99999999998
41.936	1436
41.944	1414
41.952	1391
41.96	1371
41.968	1357
41.976	1355
41.984	1373
41.992	1418
42	1496
42.008	1610
42.016	1758
42.024	1932
42.032	2119.00000000017
42.04	2304
42.048	2472
42.056	2612
42.064	2715
42.072	2779
42.08	2803
42.088	2790
42.096	2745.99999999995
42.104	2677
42.112	2589
42.12	2489
42.128	2384
42.136	2277
42.144	2172
42.152	2072
42.16	1978.99999999992
42.168	1895
42.176	1823
42.184	1764
42.192	1717
42.2	1681
42.208	1654
42.216	1634
42.224	1619.99999999999
42.232	1611
42.24	1604
42.248	1597
42.256	1591
42.264	1583
42.272	1573
42.28	1560
42.288	1543.99999999998
42.296	1526
42.304	1506
42.312	1484
42.32	1460
42.328	1435
42.336	1410
42.344	1385
42.352	1360.99999999998
42.36	1336
42.368	1310
42.376	1285
42.384	1261
42.392	1238
42.4	1215
42.408	1191
42.416	1166.99999999998
42.424	1145
42.432	1127
42.44	1118
42.448	1125
42.456	1157
42.464	1219
42.472	1314
42.48	1441.00000000012
42.488	1595
42.496	1764
42.504	1936
42.512	2099
42.52	2242
42.528	2354
42.536	2430
42.544	2468
42.552	2469
42.56	2438
42.568	2380
42.576	2303
42.584	2213
42.592	2114
42.6	2012
42.608	1912.99999999991
42.616	1820
42.624	1733
42.632	1656
42.64	1590
42.648	1535
42.656	1491
42.664	1458
42.672	1433.99999999998
42.68	1419
42.688	1412
42.696	1409
42.704	1411
42.712	1414
42.72	1414
42.728	1412
42.736	1408
42.744	1401
42.752	1392
42.76	1380
42.768	1367
42.776	1353
42.784	1337
42.792	1320
42.8	1299.99999999998
42.808	1279
42.816	1259
42.824	1238
42.832	1216
42.84	1195
42.848	1176
42.856	1157
42.864	1138.99999999998
42.872	1122
42.88	1104
42.888	1086
42.896	1071
42.904	1064
42.912	1069
42.92	1094
42.928	1144.00000000005
42.936	1224
42.944	1335
42.952	1473
42.96	1630
42.968	1795
42.976	1957
42.984	2104
42.992	2225.00000000009
43	2314
43.008	2366
43.016	2383
43.024	2368
43.032	2321.99999999995
43.04	2253
43.048	2169
43.056	2075
43.064	1977
43.072	1896
43.08	1824
43.088	1744
43.096	1665.99999999993
43.104	1595
43.112	1535
43.12	1487
43.128	1452
43.136	1427
43.144	1412
43.152	1404
43.16	1402
43.168	1404
43.176	1408
43.184	1412
43.192	1414
43.2	1415
43.208	1415
43.216	1412
43.224	1404.99999999999
43.232	1396
43.24	1383
43.248	1367
43.256	1349
43.264	1329
43.272	1306
43.28	1282
43.288	1258.99999999998
43.296	1235
43.304	1211
43.312	1188
43.32	1165
43.328	1145
43.336	1126
43.344	1106
43.352	1086.99999999999
43.36	1072
43.368	1064
43.376	1072
43.384	1104
43.392	1166
43.4	1263
43.408	1398
43.416	1564.00000000016
43.424	1752
43.432	1950
43.44	2142
43.448	2315
43.456	2458
43.464	2562
43.472	2626
43.48	2649
43.488	2634
43.496	2586
43.504	2512
43.512	2418
43.52	2312
43.528	2201
43.536	2089
43.544	1979.99999999991
43.552	1878
43.56	1786
43.568	1706
43.576	1638
43.584	1583
43.592	1543
43.6	1516
43.608	1499.99999999999
43.616	1494
43.624	1495
43.632	1501
43.64	1509
43.648	1517
43.656	1524
43.664	1528
43.672	1530
43.68	1529
43.688	1524
43.696	1515
43.704	1504
43.712	1489
43.72	1472
43.728	1452
43.736	1430.99999999998
43.744	1410
43.752	1387
43.76	1364
43.768	1340
43.776	1315
43.784	1291
43.792	1268
43.8	1243.99999999998
43.808	1221
43.816	1201
43.824	1186
43.832	1181
43.84	1195
43.848	1238
43.856	1317
43.864	1436.00000000012
43.872	1593
43.88	1782
43.888	1991
43.896	2206
43.904	2411
43.912	2594
43.92	2742
43.928	2848.00000000007
43.936	2909
43.944	2930
43.952	2912
43.96	2859
43.968	2781
43.976	2685
43.984	2577
43.992	2462.9999999999
44	2349
44.008	2240
44.016	2139
44.024	2049
44.032	1969.99999999994
44.04	1904
44.048	1852
44.056	1813
44.064	1787
44.072	1772
44.08	1765
44.088	1765
44.096	1769
44.104	1775
44.112	1781
44.12	1785
44.128	1786
44.136	1783
44.144	1776
44.152	1765
44.16	1752.99999999999
44.168	1737
44.176	1717
44.184	1695
44.192	1672
44.2	1648
44.208	1622
44.216	1594
44.224	1564.99999999997
44.232	1537
44.24	1512
44.248	1488
44.256	1465
44.264	1445
44.272	1425
44.28	1405
44.288	1388.99999999999
44.296	1382
44.304	1391
44.312	1429
44.32	1504
44.328	1619
44.336	1776
44.344	1966
44.352	2177.00000000019
44.36	2395
44.368	2604
44.376	2788
44.384	2937
44.392	3045
44.4	3108
44.408	3127
44.416	3106.99999999997
44.424	3054
44.432	2977
44.44	2883
44.448	2777
44.456	2665
44.464	2552
44.472	2441
44.48	2335.99999999991
44.488	2239
44.496	2153
44.504	2080
44.512	2019
44.52	1970
44.528	1933
44.536	1908
44.544	1891.99999999999
44.552	1884
44.56	1880
44.568	1878
44.576	1876
44.584	1873
44.592	1868
44.6	1857
44.608	1841.99999999999
44.616	1823
44.624	1801
44.632	1775
44.64	1746
44.648	1714
44.656	1682
44.664	1650
44.672	1615.99999999997
44.68	1581
44.688	1546
44.696	1510
44.704	1475
44.712	1442
44.72	1410
44.728	1380
44.736	1349.99999999997
44.744	1320
44.752	1293
44.76	1274
44.768	1267
44.776	1281
44.784	1324
44.792	1401
44.8	1517.00000000012
44.808	1671
44.816	1854
44.824	2053
44.832	2256
44.84	2447
44.848	2613
44.856	2743
44.864	2832.00000000005
44.872	2877
44.88	2880
44.888	2845
44.896	2782
44.904	2696
44.912	2594
44.92	2483
44.928	2367.9999999999
44.936	2252
44.944	2140
44.952	2033
44.96	1935
44.968	1849
44.976	1775
44.984	1715
44.992	1669.99999999997
45	1638
45.008	1618
45.016	1607
45.024	1603
45.032	1602
45.04	1602
45.048	1602
45.056	1600
45.064	1596
45.072	1589
45.08	1580
45.088	1567
45.096	1549.99999999998
45.104	1530
45.112	1508
45.12	1473
45.128	1433
45.136	1399
45.144	1367
45.152	1337
45.16	1307.99999999997
45.168	1278
45.176	1250
45.184	1225
45.192	1201
45.2	1178
45.208	1155
45.216	1133
45.224	1113.99999999999
45.232	1100
45.24	1096
45.248	1108
45.256	1142
45.264	1204
45.272	1299
45.28	1427
45.288	1581.00000000014
45.296	1754
45.304	1933
45.312	2105
45.32	2259
45.328	2385
45.336	2476
45.344	2530
45.352	2548
45.36	2532
45.368	2488
45.376	2420
45.384	2334
45.392	2238
45.4	2136
45.408	2033
45.416	1933.99999999991
45.424	1840
45.432	1753
45.44	1676
45.448	1610
45.456	1555
45.464	1512
45.472	1481
45.48	1460.99999999999
45.488	1449
45.496	1445
45.504	1447
45.512	1451
45.52	1455
45.528	1460
45.536	1464
45.544	1466
45.552	1466
45.56	1464
45.568	1460
45.576	1452
45.584	1440
45.592	1425
45.6	1408
45.608	1386.99999999998
45.616	1364
45.624	1341
45.632	1319
45.64	1295
45.648	1270
45.656	1246
45.664	1222
45.672	1196.99999999998
45.68	1173
45.688	1150
45.696	1129
45.704	1115
45.712	1112
45.72	1125
45.728	1164
45.736	1235.00000000008
45.744	1341
45.752	1478
45.76	1640
45.768	1819
45.776	2002
45.784	2175
45.792	2329
45.8	2453.00000000009
45.808	2542
45.816	2594
45.824	2609
45.832	2591
45.84	2544
45.848	2473
45.856	2388
45.864	2291.99999999991
45.872	2190
45.88	2087
45.888	1985
45.896	1887
45.904	1798
45.912	1719
45.92	1651
45.928	1594.99999999996
45.936	1551
45.944	1519
45.952	1498
45.96	1486
45.968	1482
45.976	1484
45.984	1490
45.992	1497.00000000001
46	1504
46.008	1508
46.016	1509
46.024	1507
46.032	1500.99999999999
46.04	1491
46.048	1479
46.056	1464.99999999999
46.064	1447
46.072	1426
46.08	1403
46.088	1380
46.096	1355.99999999998
46.104	1333
46.112	1310
46.12	1285
46.128	1263
46.136	1243
46.144	1222
46.152	1200
46.16	1178.99999999998
46.168	1162
46.176	1153
46.184	1160
46.192	1190
46.2	1252
46.208	1351
46.216	1486
46.224	1651.00000000016
46.232	1840
46.24	2039
46.248	2235
46.256	2414
46.264	2565
46.272	2683
46.28	2764
46.288	2807.00000000001
46.296	2814
46.304	2787
46.312	2734
46.32	2658
46.328	2565
46.336	2462
46.344	2354
46.352	2245.9999999999
46.36	2140
46.368	2041
46.376	1952
46.384	1873
46.392	1808
46.4	1756
46.408	1718
46.416	1692.99999999998
46.424	1679
46.432	1674
46.44	1676
46.448	1682
46.456	1690
46.464	1698
46.472	1703
46.48	1705
46.488	1704
46.496	1700
46.504	1694
46.512	1685
46.52	1672
46.528	1655
46.536	1637
46.544	1616.99999999998
46.552	1594
46.56	1569
46.568	1545
46.576	1520
46.584	1495
46.592	1474
46.6	1453
46.608	1430.99999999998
46.616	1409
46.624	1387
46.632	1366
46.64	1352
46.648	1353
46.656	1377
46.664	1432
46.672	1524.0000000001
46.68	1656
46.688	1822
46.696	2013
46.704	2218
46.712	2421
46.72	2611
46.728	2776
46.736	2906.0000000001
46.744	2997
46.752	3049
46.76	3061
46.768	3038
46.776	2986
46.784	2911
46.792	2819
46.8	2715.99999999991
46.808	2608
46.816	2500
46.824	2395
46.832	2295
46.84	2203
46.848	2121
46.856	2050
46.864	1990.99999999995
46.872	1945
46.88	1910
46.888	1884
46.896	1867
46.904	1858
46.912	1853
46.92	1852
46.928	1852
46.936	1852
46.944	1850
46.952	1845
46.96	1837
46.968	1826
46.976	1812
46.984	1795
46.992	1775.99999999998
47	1754
47.008	1730
47.016	1704
47.024	1676
47.032	1645.99999999997
47.04	1615
47.048	1585
47.056	1555.99999999997
47.064	1527
47.072	1500
47.08	1474
47.088	1447
47.096	1418.99999999998
47.104	1393
47.112	1374
47.12	1370
47.128	1391
47.136	1446
47.144	1538
47.152	1668
47.16	1833.00000000015
47.168	2012
47.176	2196
47.184	2386
47.192	2562
47.2	2710
47.208	2824
47.216	2899
47.224	2934
47.232	2931
47.24	2896
47.248	2835
47.256	2754
47.264	2656
47.272	2548
47.28	2434
47.288	2318.9999999999
47.296	2208
47.304	2102
47.312	2005
47.32	1920
47.328	1845
47.336	1783
47.344	1733
47.352	1693.99999999997
47.36	1666
47.368	1648
47.376	1638
47.384	1633
47.392	1630
47.4	1626
47.408	1621
47.416	1614.99999999999
47.424	1606
47.432	1592
47.44	1574
47.448	1553
47.456	1531
47.464	1507
47.472	1479
47.48	1449.99999999997
47.488	1421
47.496	1391
47.504	1361
47.512	1333
47.52	1307
47.528	1282
47.536	1256
47.544	1230.99999999998
47.552	1209
47.56	1188
47.568	1167
47.576	1148
47.584	1134
47.592	1131
47.6	1145
47.608	1182.00000000004
47.616	1249
47.624	1350
47.632	1482
47.64	1641
47.648	1817
47.656	1997
47.664	2169
47.672	2324.00000000012
47.68	2452
47.688	2547
47.696	2607
47.704	2630
47.712	2618
47.72	2577
47.728	2513
47.736	2429.99999999992
47.744	2333
47.752	2228
47.76	2119
47.768	2012
47.776	1909
47.784	1814
47.792	1727
47.8	1650.99999999994
47.808	1587
47.816	1535
47.824	1493
47.832	1461
47.84	1439
47.848	1426
47.856	1419
47.864	1417
47.872	1417
47.88	1418
47.888	1419
47.896	1420
47.904	1419
47.912	1417
47.92	1415
47.928	1410.99999999999
47.936	1402
47.944	1388
47.952	1370
47.96	1349
47.968	1328
47.976	1305
47.984	1281
47.992	1256.99999999998
48	1233
48.008	1210
48.016	1187
48.024	1165
48.032	1143.99999999998
48.04	1122
48.048	1102
48.056	1086.99999999999
48.064	1080
48.072	1087
48.08	1117
48.088	1176
48.096	1265.00000000009
48.104	1386
48.112	1534
48.12	1700.00000000015
48.128	1875
48.136	2048
48.144	2206
48.152	2340
48.16	2444.00000000008
48.168	2515
48.176	2552
48.184	2556
48.192	2531
48.2	2480
48.208	2408
48.216	2323
48.224	2228.99999999991
48.232	2130
48.24	2030
48.248	1931
48.256	1837
48.264	1750
48.272	1671
48.28	1604
48.288	1548.99999999996
48.296	1506
48.304	1473
48.312	1451
48.32	1437
48.328	1430
48.336	1428
48.344	1429
48.352	1432
48.36	1435
48.368	1439
48.376	1441
48.384	1439
48.392	1434
48.4	1426
48.408	1416
48.416	1404.99999999999
48.424	1392
48.432	1375
48.44	1356
48.448	1335
48.456	1315
48.464	1293
48.472	1269
48.48	1244.99999999998
48.488	1222
48.496	1200
48.504	1180
48.512	1161
48.52	1145
48.528	1135
48.536	1137
48.544	1157.00000000002
48.552	1203
48.56	1280
48.568	1388
48.576	1529
48.584	1697
48.592	1880
48.6	2067
48.608	2247.00000000015
48.616	2408
48.624	2542
48.632	2644
48.64	2711
48.648	2742
48.656	2738
48.664	2705
48.672	2647.99999999994
48.68	2570
48.688	2478
48.696	2378
48.704	2274
48.712	2169
48.72	2068
48.728	1972
48.736	1884.99999999993
48.744	1810
48.752	1745
48.76	1693
48.768	1654
48.776	1626
48.784	1608
48.792	1599
48.8	1597
48.808	1599
48.816	1604
48.824	1609
48.832	1614
48.84	1617
48.848	1619
48.856	1618
48.864	1612.99999999999
48.872	1606
48.88	1595
48.888	1581
48.896	1564
48.904	1546
48.912	1527
48.92	1506
48.928	1482.99999999998
48.936	1460
48.944	1438
48.952	1418
48.96	1397
48.968	1376
48.976	1354
48.984	1333
48.992	1317.99999999999
49	1312
49.008	1323
49.016	1360
49.024	1428
49.032	1531.00000000011
49.04	1670
49.048	1840
49.056	2032.00000000017
49.064	2233
49.072	2430
49.08	2610
49.088	2763
49.096	2881.00000000009
49.104	2962
49.112	3005
49.12	3012
49.128	2985
49.136	2931
49.144	2856
49.152	2764
49.16	2660.99999999991
49.168	2553
49.176	2445
49.184	2341
49.192	2243
49.2	2153
49.208	2072
49.216	1963
49.224	1903.99999999996
49.232	1860
49.24	1813
49.248	1794
49.256	1782
49.264	1775
49.272	1772
49.28	1770
49.288	1768
49.296	1765
49.304	1761
49.312	1755
49.32	1747
49.328	1735
49.336	1719
49.344	1700
49.352	1677.99999999998
49.36	1655
49.368	1618
49.376	1591
49.384	1563
49.392	1509
49.4	1485
49.408	1461
49.416	1412.99999999997
49.424	1392
49.432	1375
49.44	1366
49.448	1385
49.456	1433
49.464	1516
49.472	1637
49.48	1794.00000000015
49.488	1977
49.496	2177
49.504	2380
49.512	2572
49.52	2742
49.528	2881
49.536	2983
49.544	3045.00000000003
49.552	3069
49.56	3057
49.568	3013
49.576	2944
49.584	2856
49.592	2754
49.6	2643
49.608	2528.9999999999
49.616	2415
49.624	2304
49.632	2199
49.64	2104
49.648	2019
49.656	1946
49.664	1884
49.672	1833.99999999996
49.68	1797
49.688	1772
49.696	1754
49.704	1741
49.712	1732
49.72	1725
49.728	1719
49.736	1710.99999999999
49.744	1701
49.752	1688
49.76	1671
49.768	1653
49.776	1633
49.784	1611
49.792	1588
49.8	1562.99999999998
49.808	1537
49.816	1510
49.824	1481
49.832	1451
49.84	1420
49.848	1390
49.856	1362
49.864	1333.99999999998
49.872	1307
49.88	1282
49.888	1258
49.896	1237
49.904	1222
49.912	1216
49.92	1227
49.928	1262.00000000004
49.936	1324
49.944	1418
49.952	1544
49.96	1697
49.968	1870
49.976	2051
49.984	2229
49.992	2392.00000000013
50	2531
50.008	2639
50.016	2710
50.024	2745
50.032	2747
50.04	2717
50.048	2661
50.056	2584.99999999993
50.064	2494
50.072	2394
50.08	2289
50.088	2182
50.096	2075.99999999991
50.104	1975
50.112	1883
50.12	1800.99999999993
50.128	1729
50.136	1669
50.144	1621
50.152	1584
50.16	1555.99999999998
50.168	1536
50.176	1523
50.184	1516
50.192	1512
50.2	1510
50.208	1508
50.216	1505
50.224	1501
50.232	1494
50.24	1483
50.248	1470
50.256	1454
50.264	1436
50.272	1417
50.28	1399
50.288	1379.99999999998
50.296	1358
50.304	1335
50.312	1311
50.32	1287
50.328	1265
50.336	1244
50.344	1224
50.352	1204.99999999998
50.36	1187
50.368	1170
50.376	1156
50.384	1150
50.392	1158
50.4	1187
50.408	1242
50.416	1324.00000000008
50.424	1435
50.432	1572
50.44	1728
50.448	1895
50.456	2061
50.464	2216
50.472	2351
50.48	2460.00000000008
50.488	2536
50.496	2577
50.504	2585
50.512	2563
50.52	2515
50.528	2446
50.536	2363
50.544	2270.99999999991
50.552	2171
50.56	2069
50.568	1969
50.576	1874
50.584	1786
50.592	1707
50.6	1638
50.608	1579.99999999996
50.616	1536
50.624	1504
50.632	1482
50.64	1469
50.648	1465
50.656	1467
50.664	1471
50.672	1476
50.68	1481
50.688	1484
50.696	1483
50.704	1481
50.712	1476
50.72	1467
50.728	1456
50.736	1440.99999999999
50.744	1424
50.752	1405
50.76	1387
50.768	1369
50.776	1349
50.784	1327
50.792	1304
50.8	1280.99999999998
50.808	1260
50.816	1239
50.824	1219
50.832	1200
50.84	1184
50.848	1175
50.856	1179
50.864	1202.00000000003
50.872	1248
50.88	1322
50.888	1427
50.896	1561
50.904	1719
50.912	1893
50.92	2071
50.928	2242.00000000014
50.936	2396
50.944	2525
50.952	2622
50.96	2683
50.968	2710
50.976	2704
50.984	2669
50.992	2608.99999999994
51	2528
51.008	2432
51.016	2329
51.024	2224
51.032	2117.99999999991
51.04	2016
51.048	1921
51.056	1836.99999999993
51.064	1764
51.072	1702
51.08	1653
51.088	1616
51.096	1587.99999999998
51.104	1569
51.112	1559
51.12	1554
51.128	1552
51.136	1552
51.144	1553
51.152	1555
51.16	1555
51.168	1552
51.176	1546
51.184	1536.99999999999
51.192	1526
51.2	1513
51.208	1499
51.216	1483
51.224	1464.99999999998
51.232	1420
51.24	1360
51.248	1319
51.256	1290
51.264	1266
51.272	1245
51.28	1226
51.288	1206.99999999998
51.296	1191
51.304	1178
51.312	1171
51.32	1178
51.328	1206
51.336	1263
51.344	1353
51.352	1475.00000000012
51.36	1627
51.368	1805
51.376	2000
51.384	2197
51.392	2386
51.4	2556
51.408	2697
51.416	2805.00000000008
51.424	2877
51.432	2912
51.44	2911
51.448	2879
51.456	2820
51.464	2738
51.472	2639
51.48	2529.9999999999
51.488	2416
51.496	2302
51.504	2193
51.512	2093
51.52	2001
51.528	1920
51.536	1853
51.544	1798.99999999996
51.552	1756
51.56	1724
51.568	1702
51.576	1688
51.584	1679
51.592	1674
51.6	1672
51.608	1671
51.616	1670
51.624	1667
51.632	1662
51.64	1654
51.648	1643
51.656	1629
51.664	1613
51.672	1595.99999999998
51.68	1576
51.688	1555
51.696	1534
51.704	1510
51.712	1484
51.72	1458
51.728	1434
51.736	1411.99999999998
51.744	1391
51.752	1369
51.76	1346
51.768	1325
51.776	1311
51.784	1310
51.792	1331
51.8	1383.00000000006
51.808	1468
51.816	1588
51.824	1743
51.832	1926
51.84	2124
51.848	2325
51.856	2518
51.864	2690.00000000014
51.872	2831
51.88	2937
51.888	3004
51.896	3033
51.904	3028
51.912	2991
51.92	2929
51.928	2844.99999999992
51.936	2745
51.944	2635
51.952	2520
51.96	2404
51.968	2292
51.976	2189
51.984	2097
51.992	2014.99999999993
52	1945
52.008	1887
52.016	1842
52.024	1808
52.032	1781.99999999998
52.04	1763
52.048	1750
52.056	1739.99999999999
52.064	1732
52.072	1724
52.08	1715
52.088	1704
52.096	1688.99999999999
52.104	1672
52.112	1651
52.12	1627.99999999998
52.128	1603
52.136	1576
52.144	1547
52.152	1519
52.16	1489.99999999997
52.168	1460
52.176	1432
52.184	1405.99999999998
52.192	1381
52.2	1356
52.208	1329
52.216	1303
52.224	1276.99999999998
52.232	1252
52.24	1230
52.248	1216
52.256	1219
52.264	1246
52.272	1301
52.28	1390
52.288	1513.00000000012
52.296	1669
52.304	1848
52.312	2037
52.32	2226
52.328	2401
52.336	2552
52.344	2671
52.352	2753.00000000005
52.36	2795
52.368	2799
52.376	2769
52.384	2711
52.392	2630
52.4	2531
52.408	2421
52.416	2303.99999999989
52.424	2184
52.432	2068
52.44	1959
52.448	1858
52.456	1769
52.464	1694
52.472	1630
52.48	1578.99999999996
52.488	1542
52.496	1515
52.504	1497
52.512	1486
52.52	1479
52.528	1476
52.536	1472
52.544	1467
52.552	1461
52.56	1453
52.568	1443
52.576	1431
52.584	1418
52.592	1404
52.6	1390
52.608	1373.99999999998
52.616	1355
52.624	1334
52.632	1311
52.64	1289
52.648	1267
52.656	1243
52.664	1218
52.672	1191.99999999998
52.68	1167
52.688	1145
52.696	1125
52.704	1107
52.712	1094
52.72	1092
52.728	1106
52.736	1140.00000000004
52.744	1199
52.752	1286
52.76	1400
52.768	1540
52.776	1697
52.784	1861
52.792	2024
52.8	2176.00000000013
52.808	2307
52.816	2412
52.824	2484
52.832	2520
52.84	2521
52.848	2490
52.856	2430
52.864	2346.99999999992
52.872	2248
52.88	2138
52.888	2025
52.896	1914
52.904	1808
52.912	1711
52.92	1625
52.928	1550.99999999994
52.936	1489
52.944	1441
52.952	1407
52.96	1384
52.968	1370
52.976	1365
52.984	1366
52.992	1369
53	1374
53.008	1378
53.016	1380
53.024	1379
53.032	1376
53.04	1370
53.048	1362
53.056	1350.99999999999
53.064	1338
53.072	1322
53.08	1304
53.088	1286
53.096	1267.99999999998
53.104	1248
53.112	1226
53.12	1202.99999999998
53.128	1181
53.136	1161
53.144	1143
53.152	1126
53.16	1109.99999999999
53.168	1096
53.176	1087
53.184	1090
53.192	1108
53.2	1147
53.208	1212
53.216	1306
53.224	1430.00000000012
53.232	1578
53.24	1743
53.248	1916.00000000015
53.256	2085
53.264	2241
53.272	2375
53.28	2476
53.288	2539.00000000004
53.296	2568
53.304	2562
53.312	2524
53.32	2457
53.328	2369
53.336	2267
53.344	2155
53.352	2039.9999999999
53.36	1926
53.368	1817
53.376	1718
53.384	1629
53.392	1552
53.4	1487
53.408	1437
53.416	1401.99999999998
53.424	1379
53.432	1367
53.44	1363
53.448	1363
53.456	1366
53.464	1369
53.472	1372
53.48	1373
53.488	1371
53.496	1367
53.504	1362
53.512	1355
53.52	1345
53.528	1331
53.536	1315
53.544	1295.99999999998
53.552	1273
53.56	1250
53.568	1228
53.576	1205
53.584	1183
53.592	1163
53.6	1142
53.608	1121.99999999998
53.616	1105
53.624	1090
53.632	1079
53.64	1077
53.648	1088
53.656	1120
53.664	1182
53.672	1279.0000000001
53.68	1412
53.688	1575
53.696	1761
53.704	1962
53.712	2164
53.72	2353
53.728	2519
53.736	2651.0000000001
53.744	2746
53.752	2802
53.76	2817
53.768	2795
53.776	2743
53.784	2665
53.792	2568
53.8	2456.9999999999
53.808	2336
53.816	2211
53.824	2089
53.832	1976
53.84	1876
53.848	1790
53.856	1718
53.864	1661.99999999996
53.872	1622
53.88	1593
53.888	1573
53.896	1561
53.904	1555
53.912	1552
53.92	1550
53.928	1550
53.936	1551
53.944	1553
53.952	1554
53.96	1552
53.968	1548
53.976	1541
53.984	1530
53.992	1514.99999999999
54	1498
54.008	1478
54.016	1458
54.024	1438
54.032	1415.99999999998
54.04	1393
54.048	1373
54.056	1352.99999999998
54.064	1332
54.072	1311
54.08	1292
54.088	1274
54.096	1263
54.104	1269
54.112	1298
54.12	1356.00000000006
54.128	1450
54.136	1583
54.144	1751
54.152	1945
54.16	2154.00000000019
54.168	2364
54.176	2564
54.184	2741.00000000014
54.192	2884
54.2	2986
54.208	3046
54.216	3066
54.224	3048.99999999998
54.232	2997
54.24	2917
54.248	2816.9999999999
54.256	2702
54.264	2578
54.272	2452
54.28	2329
54.288	2211.9999999999
54.296	2104
54.304	2010
54.312	1931
54.32	1868
54.328	1818
54.336	1782
54.344	1758
54.352	1742.99999999999
54.36	1735
54.368	1731
54.376	1730
54.384	1728
54.392	1726
54.4	1723
54.408	1718
54.416	1709.99999999999
54.424	1699
54.432	1686
54.44	1670
54.448	1651
54.456	1630
54.464	1607
54.472	1582
54.48	1553.99999999998
54.488	1526
54.496	1498
54.504	1471
54.512	1444
54.52	1415
54.528	1388
54.536	1360
54.544	1331.99999999998
54.552	1309
54.56	1298
54.568	1306
54.576	1341
54.584	1409
54.592	1514
54.6	1656
54.608	1830.00000000016
54.616	2025
54.624	2230
54.632	2430
54.64	2611
54.648	2762
54.656	2876
54.664	2950
54.672	2983
54.68	2977
54.688	2935
54.696	2863
54.704	2766
54.712	2650
54.72	2522
54.728	2388
54.736	2254.99999999988
54.744	2128
54.752	2008
54.76	1901
54.768	1809
54.776	1730
54.784	1666
54.792	1617
54.8	1579.99999999997
54.808	1553
54.816	1535
54.824	1523
54.832	1514
54.84	1505
54.848	1498
54.856	1491
54.864	1481.99999999999
54.872	1469
54.88	1455
54.888	1440
54.896	1422
54.904	1402
54.912	1382
54.92	1361
54.928	1339.99999999998
54.936	1317
54.944	1292
54.952	1266
54.96	1240
54.968	1213
54.976	1186
54.984	1158
54.992	1131.99999999998
55	1109
55.008	1090
55.016	1076
55.024	1071
55.032	1080.00000000001
55.04	1110
55.048	1170
55.056	1263.0000000001
55.064	1389
55.072	1544
55.08	1721
55.088	1909
55.096	2096.00000000016
55.104	2269
55.112	2416
55.12	2529.00000000008
55.128	2603
55.136	2635
55.144	2627
55.152	2582
55.16	2505.99999999992
55.168	2407
55.176	2293
55.184	2169.99999999989
55.192	2044
55.2	1921
55.208	1805
55.216	1697
55.224	1599.99999999992
55.232	1518
55.24	1451
55.248	1397.99999999996
55.256	1359
55.264	1334
55.272	1318
55.28	1310
55.288	1308
55.296	1309
55.304	1312
55.312	1314
55.32	1316
55.328	1321
55.336	1326
55.344	1325
55.352	1319.99999999999
55.36	1311
55.368	1299
55.376	1283
55.384	1266
55.392	1248
55.4	1228
55.408	1206
55.416	1181.99999999998
55.424	1157
55.432	1134
55.44	1112
55.448	1091
55.456	1072
55.464	1055
55.472	1044
55.48	1041
55.488	1051
55.496	1078
55.504	1127
55.512	1204
55.52	1309
55.528	1442
55.536	1596
55.544	1765.00000000015
55.552	1940
55.56	2106
55.568	2253
55.576	2371
55.584	2452
55.592	2493
55.6	2495
55.608	2459.99999999996
55.616	2392
55.624	2301
55.632	2194
55.64	2075
55.648	1953
55.656	1834
55.664	1723
55.672	1623.99999999992
55.68	1538
55.688	1467
55.696	1411
55.704	1368
55.712	1337
55.72	1317
55.728	1306
55.736	1302
55.744	1303
55.752	1308
55.76	1314
55.768	1320
55.776	1324
55.784	1325
55.792	1323
55.8	1317.99999999999
55.808	1310
55.816	1300
55.824	1287
55.832	1272
55.84	1255
55.848	1237
55.856	1217
55.864	1194.99999999998
55.872	1172
55.88	1150
55.888	1130
55.896	1111
55.904	1094
55.912	1078
55.92	1065
55.928	1058
55.936	1060
55.944	1078
55.952	1117
55.96	1182
55.968	1276
55.976	1402
55.984	1557
55.992	1733.00000000016
56	1920
56.008	2107
56.016	2283
56.024	2435
56.032	2554.00000000008
56.04	2633
56.048	2672
56.056	2672
56.064	2635
56.072	2566
56.08	2470
56.088	2356
56.096	2230.99999999989
56.104	2100
56.112	1969
56.12	1846.9999999999
56.128	1738
56.136	1644
56.144	1567
56.152	1507
56.16	1461.99999999997
56.168	1429
56.176	1408
56.184	1394.99999999999
56.192	1389
56.2	1388
56.208	1390
56.216	1394
56.224	1399
56.232	1404
56.24	1405
56.248	1404
56.256	1399
56.264	1391
56.272	1382
56.28	1372
56.288	1359.99999999999
56.296	1345
56.304	1328
56.312	1307.99999999998
56.32	1286
56.328	1264
56.336	1242
56.344	1220
56.352	1198.99999999998
56.36	1180
56.368	1163
56.376	1150
56.384	1144
56.392	1153
56.4	1184
56.408	1243
56.416	1335.00000000009
56.424	1462
56.432	1621
56.44	1807
56.448	2010
56.456	2215
56.464	2410
56.472	2582
56.48	2723.00000000011
56.488	2827
56.496	2890
56.504	2910
56.512	2890
56.52	2834
56.528	2748
56.536	2639
56.544	2513.99999999989
56.552	2381
56.56	2248
56.568	2118
56.576	1997
56.584	1889
56.592	1797
56.6	1721
56.608	1659.99999999995
56.616	1614
56.624	1582
56.632	1562
56.64	1551
56.648	1548
56.656	1549
56.664	1552
56.672	1555
56.68	1558
56.688	1558
56.696	1556
56.704	1551
56.712	1543
56.72	1532
56.728	1517
56.736	1499.99999999998
56.744	1481
56.752	1460
56.76	1436
56.768	1412
56.776	1388
56.784	1363
56.792	1338
56.8	1311.99999999998
56.808	1286
56.816	1261
56.824	1239
56.832	1223
56.84	1219
56.848	1234
56.856	1276
56.864	1352.00000000008
56.872	1466
56.88	1619
56.888	1806
56.896	2016
56.904	2236
56.912	2449
56.92	2641
56.928	2802.00000000012
56.936	2924
56.944	3003
56.952	3038
56.96	3029
56.968	2982
56.976	2901
56.984	2794
56.992	2667.99999999988
57	2531
57.008	2390
57.016	2249
57.024	2115
57.032	1992.9999999999
57.04	1886
57.048	1795
57.056	1720.99999999994
57.064	1662
57.072	1616
57.08	1582
57.088	1558
57.096	1540.99999999999
57.104	1530
57.112	1521
57.12	1513.99999999999
57.128	1507
57.136	1500
57.144	1491
57.152	1479
57.16	1462.99999999998
57.168	1443
57.176	1419
57.184	1393.99999999998
57.192	1368
57.2	1340
57.208	1311
57.216	1282
57.224	1251.99999999997
57.232	1222
57.24	1192
57.248	1162.99999999997
57.256	1134
57.264	1104
57.272	1075
57.28	1049
57.288	1027.99999999999
57.296	1016
57.304	1022
57.312	1054.00000000004
57.32	1118
57.328	1218
57.336	1356
57.344	1528
57.352	1724.00000000018
57.36	1930
57.368	2131
57.376	2306
57.384	2444
57.392	2547
57.4	2610
57.408	2632
57.416	2614.99999999998
57.424	2561
57.432	2477
57.44	2372
57.448	2251
57.456	2122
57.464	1990
57.472	1861
57.48	1739.9999999999
57.488	1630
57.496	1535
57.504	1456
57.512	1392
57.52	1344
57.528	1311
57.536	1290
57.544	1276.99999999999
57.552	1271
57.56	1269
57.568	1270
57.576	1271
57.584	1273
57.592	1275
57.6	1275
57.608	1272
57.616	1266
57.624	1258
57.632	1249
57.64	1238
57.648	1222
57.656	1205
57.664	1187
57.672	1164.99999999998
57.68	1141
57.688	1116
57.696	1090
57.704	1065
57.712	1040
57.72	1015
57.728	993
57.736	973.999999999986
57.744	961
57.752	958
57.76	969
57.768	1003
57.776	1065
57.784	1157
57.792	1279
57.8	1428.00000000014
57.808	1596
57.816	1775
57.824	1954
57.832	2118
57.84	2256
57.848	2359
57.856	2423
57.864	2446
57.872	2428
57.88	2375
57.888	2293
57.896	2189
57.904	2070
57.912	1942
57.92	1815
57.928	1694.9999999999
57.936	1584
57.944	1484
57.952	1398
57.96	1329
57.968	1276
57.976	1237
57.984	1213
57.992	1198.99999999999
58	1193
58.008	1193
58.016	1196
58.024	1199
58.032	1204
58.04	1210
58.048	1215
58.056	1219
58.064	1220
58.072	1216
58.08	1210
58.088	1202
58.096	1190.99999999999
58.104	1178
58.112	1161
58.12	1140.99999999998
58.128	1119
58.136	1097
58.144	1074
58.152	1049
58.16	1024.99999999998
58.168	1002
58.176	980
58.184	960.999999999986
58.192	948
58.2	943
58.208	952
58.216	978
58.224	1030.00000000006
58.232	1114
58.24	1230
58.248	1376.00000000014
58.256	1546
58.264	1731
58.272	1918
58.28	2093
58.288	2246.00000000012
58.296	2366
58.304	2447
58.312	2486
58.32	2482
58.328	2440
58.336	2366
58.344	2267
58.352	2151.99999999989
58.36	2026
58.368	1896
58.376	1768
58.384	1649
58.392	1544
58.4	1452
58.408	1376
58.416	1316.99999999996
58.424	1274
58.432	1244
58.44	1226
58.448	1218
58.456	1217
58.464	1221
58.472	1227
58.48	1233
58.488	1237
58.496	1239
58.504	1239
58.512	1236
58.52	1229
58.528	1220
58.536	1209
58.544	1196.99999999999
58.552	1183
58.56	1167
58.568	1148
58.576	1127
58.584	1106
58.592	1083
58.6	1060
58.608	1035.99999999998
58.616	1012
58.624	989
58.632	970
58.64	956
58.648	950
58.656	958
58.664	987
58.672	1044.00000000006
58.68	1133
58.688	1258
58.696	1415
58.704	1599
58.712	1799
58.72	2002
58.728	2194
58.736	2361.00000000013
58.744	2494
58.752	2585
58.76	2633
58.768	2638
58.776	2602
58.784	2532
58.792	2435
58.8	2318.99999999989
58.808	2191
58.816	2058
58.824	1926
58.832	1803
58.84	1693
58.848	1596
58.856	1514
58.864	1448.99999999995
58.872	1400
58.88	1365
58.888	1345
58.896	1335
58.904	1332
58.912	1334
58.92	1339
58.928	1346.00000000001
58.936	1352
58.944	1357
58.952	1360
58.96	1359
58.968	1355
58.976	1347
58.984	1337
58.992	1324.99999999999
59	1310
59.008	1294
59.016	1278
59.024	1261
59.032	1242.99999999998
59.04	1224
59.048	1204
59.056	1181.99999999998
59.064	1158
59.072	1132
59.08	1107
59.088	1089
59.096	1080
59.104	1085
59.112	1114
59.12	1173.00000000007
59.128	1270
59.136	1406
59.144	1578
59.152	1779
59.16	1997.00000000019
59.168	2214
59.176	2415
59.184	2589.00000000014
59.192	2725
59.2	2818
59.208	2865
59.216	2868
59.224	2829.99999999996
59.232	2757
59.24	2656
59.248	2532.99999999989
59.256	2398
59.264	2256
59.272	2114
59.28	1978
59.288	1852.9999999999
59.296	1744
59.304	1651
59.312	1575.99999999994
59.32	1517
59.328	1475
59.336	1448
59.344	1432
59.352	1426
59.36	1427
59.368	1431
59.376	1435
59.384	1438
59.392	1438
59.4	1435
59.408	1430
59.416	1422
59.424	1455
59.432	1509
59.44	1529
59.448	1530
59.456	1519
59.464	1503
59.472	1485
59.48	1463.99999999998
59.488	1440
59.496	1415
59.504	1389
59.512	1363
59.52	1337
59.528	1311
59.536	1288
59.544	1270
59.552	1267
59.56	1290
59.568	1342
59.576	1553
59.584	1709
59.592	1890
59.6	2181
59.608	2368.00000000016
59.616	2532
59.624	2662
59.632	2753
59.64	2803
59.648	2810
59.656	2776
59.664	2708
59.672	2611.99999999991
59.68	2495
59.688	2366
59.696	2229
59.704	2092
59.712	1960
59.72	1839
59.728	1687
59.736	1601.99999999993
59.744	1533
59.752	1440
59.76	1414
59.768	1399
59.776	1389
59.784	1388
59.792	1389
59.8	1391
59.808	1391
59.816	1389
59.824	1385
59.832	1379
59.84	1371
59.848	1361
59.856	1349
59.864	1333.99999999999
59.872	1316
59.88	1297
59.888	1276
59.896	1253
59.904	1230
59.912	1205
59.92	1181
59.928	1155.99999999998
59.936	1130
59.944	1105
59.952	1082
59.96	1062
59.968	1049
59.976	1048
59.984	1064
59.992	1105.00000000005
60	1177
60.008	1281
60.016	1416
60.024	1577
60.032	1756.00000000016
60.04	1939
60.048	2114
60.056	2267.00000000012
60.064	2389
60.072	2473
60.08	2516
60.088	2518
60.096	2482.99999999996
60.104	2417
60.112	2326
60.12	2215.9999999999
60.128	2096
60.136	1972
60.144	1849
60.152	1734
60.16	1627.99999999991
60.168	1533
60.176	1452
60.184	1384.99999999995
60.192	1336
60.2	1302
60.208	1280
60.216	1270
60.224	1269
60.232	1273
60.24	1280
60.248	1287.00000000001
60.256	1293
60.264	1298
60.272	1301
60.28	1302
60.288	1300
60.296	1296
60.304	1289
60.312	1279.99999999999
60.32	1268
60.328	1253
60.336	1235
60.344	1215
60.352	1195.99999999998
60.36	1176
60.368	1155
60.376	1133.99999999998
60.384	1112
60.392	1091
60.4	1072
60.408	1054
60.416	1039.99999999999
60.424	1035
60.432	1044
60.44	1071
60.448	1123
60.456	1204
60.464	1316
60.472	1457
60.48	1620.00000000015
60.488	1794
60.496	1967
60.504	2128
60.512	2265
60.52	2369
60.528	2434
60.536	2458
60.544	2443.99999999998
60.552	2396
60.56	2319
60.568	2220
60.576	2106
60.584	1985
60.592	1864
60.6	1748
60.608	1641.99999999991
60.616	1549
60.624	1471
60.632	1408
60.64	1359
60.648	1326
60.656	1306
60.664	1297
60.672	1296
60.68	1298
60.688	1303
60.696	1311
60.704	1320
60.712	1326
60.72	1329
60.728	1331
60.736	1332
60.744	1330
60.752	1324
60.76	1315
60.768	1304
60.776	1290
60.784	1274
60.792	1255
60.8	1233.99999999998
60.808	1212
60.816	1190
60.824	1168
60.832	1146
60.84	1124
60.848	1105
60.856	1090
60.864	1077.99999999999
60.872	1074
60.88	1083
60.888	1111
60.896	1165
60.904	1251
60.912	1369
60.92	1518
60.928	1691.00000000016
60.936	1878
60.944	2064
60.952	2235
60.96	2381
60.968	2492
60.976	2563
60.984	2593
60.992	2581.99999999998
61	2535
61.008	2459
61.016	2360
61.024	2245
61.032	2121.99999999989
61.04	1995
61.048	1873
61.056	1759.9999999999
61.064	1657
61.072	1570
61.08	1499
61.088	1445
61.096	1408.99999999998
61.104	1388
61.112	1377
61.12	1377
61.128	1384
61.136	1392
61.144	1400
61.152	1408
61.16	1415.00000000001
61.168	1420
61.176	1422
61.184	1421
61.192	1417
61.2	1410
61.208	1400
61.216	1389
61.224	1376.99999999999
61.232	1362
61.24	1344
61.248	1324.99999999998
61.256	1306
61.264	1286
61.272	1267
61.28	1249
61.288	1229.99999999998
61.296	1211
61.304	1194
61.312	1179.99999999999
61.32	1175
61.328	1185
61.336	1216
61.344	1276
61.352	1371.0000000001
61.36	1502
61.368	1664
61.376	1851.00000000017
61.384	2051
61.392	2247
61.4	2427
61.408	2581
61.416	2699.00000000008
61.424	2774
61.432	2806
61.44	2820
61.448	2809
61.456	2753
61.464	2666
61.472	2558
61.48	2438.99999999989
61.488	2316
61.496	2193
61.504	2078
61.512	1974
61.52	1885
61.528	1812
61.536	1754
61.544	1712.99999999997
61.552	1687
61.56	1672
61.568	1665
61.576	1664
61.584	1666
61.592	1671
61.6	1676
61.608	1678
61.616	1679
61.624	1679
61.632	1676
61.64	1671
61.648	1665
61.656	1656
61.664	1644
61.672	1629.99999999999
61.68	1614
61.688	1596
61.696	1576
61.704	1554
61.712	1533
61.72	1514
61.728	1494
61.736	1473.99999999998
61.744	1453
61.752	1433
61.76	1416
61.768	1405
61.776	1407
61.784	1428
61.792	1477
61.8	1561.00000000009
61.808	1682
61.816	1839
61.824	2024
61.832	2222
61.84	2419
61.848	2601
61.856	2756
61.864	2874.00000000008
61.872	2951
61.88	2987
61.888	2983
61.896	2943
61.904	2873
61.912	2779
61.92	2667
61.928	2544.99999999989
61.936	2418
61.944	2292
61.952	2172
61.96	2061
61.968	1963
61.976	1879
61.984	1809
61.992	1753.99999999996
62	1714
62.008	1686
62.016	1668
62.024	1658
62.032	1653
62.04	1652
62.048	1651
62.056	1650
62.064	1646
62.072	1639
62.08	1631
62.088	1620
62.096	1605.99999999999
62.104	1591
62.112	1575
62.12	1554.99999999998
62.128	1533
62.136	1510
62.144	1483
62.152	1455
62.16	1426.99999999998
62.168	1399
62.176	1370
62.184	1340.99999999998
62.192	1315
62.2	1288
62.208	1260
62.216	1237
62.224	1223
62.232	1222
62.24	1242
62.248	1294.00000000006
62.256	1382
62.264	1506
62.272	1663
62.28	1844
62.288	2035.00000000017
62.296	2223
62.304	2393
62.312	2533.00000000011
62.32	2635
62.328	2696
62.336	2715
62.344	2696
62.352	2642.99999999994
62.36	2563
62.368	2462
62.376	2345.99999999989
62.384	2221
62.392	2094
62.4	1971
62.408	1856
62.416	1749.99999999991
62.424	1658
62.432	1582
62.44	1521.99999999995
62.448	1477
62.456	1446
62.464	1427
62.472	1419
62.48	1417
62.488	1418
62.496	1419
62.504	1421
62.512	1423
62.52	1423
62.528	1421
62.536	1418
62.544	1413
62.552	1408
62.56	1401
62.568	1391
62.576	1378
62.584	1363
62.592	1347
62.6	1328
62.608	1306.99999999998
62.616	1286
62.624	1263
62.632	1241
62.64	1220
62.648	1198
62.656	1177
62.664	1159
62.672	1142.99999999999
62.68	1133
62.688	1136
62.696	1159
62.704	1208
62.712	1285
62.72	1395
62.728	1535
62.736	1697.00000000015
62.744	1871
62.752	2046
62.76	2207
62.768	2342
62.776	2443
62.784	2507
62.792	2531
62.8	2516.99999999998
62.808	2470
62.816	2396
62.824	2302
62.832	2194
62.84	2078
62.848	1962
62.856	1851
62.864	1747.99999999991
62.872	1655
62.88	1577
62.888	1513
62.896	1463
62.904	1428
62.912	1404
62.92	1390
62.928	1385
62.936	1386
62.944	1390
62.952	1397
62.96	1405
62.968	1412
62.976	1416
62.984	1418
62.992	1418
63	1416
63.008	1412
63.016	1404
63.024	1393
63.032	1380.99999999999
63.04	1367
63.048	1351
63.056	1333.99999999998
63.064	1316
63.072	1297
63.08	1277
63.088	1256
63.096	1233.99999999998
63.104	1212
63.112	1192
63.12	1173.99999999999
63.128	1160
63.136	1155
63.144	1166
63.152	1197
63.16	1256.00000000006
63.168	1348
63.176	1472
63.184	1623.00000000014
63.192	1793
63.2	1969
63.208	2139
63.216	2290
63.224	2411.00000000009
63.232	2498
63.24	2546
63.248	2555
63.256	2529
63.264	2472
63.272	2391
63.28	2294
63.288	2183.9999999999
63.296	2070
63.304	1959
63.312	1853.99999999991
63.32	1756
63.328	1670
63.336	1599
63.344	1544
63.352	1501.99999999997
63.36	1472
63.368	1454
63.376	1446
63.384	1445
63.392	1448
63.4	1453
63.408	1460
63.416	1465
63.424	1469
63.432	1471
63.44	1470
63.448	1465
63.456	1458
63.464	1447
63.472	1435
63.48	1421.99999999998
63.488	1398
63.496	1369
63.504	1346
63.512	1324
63.52	1304
63.528	1285
63.536	1266
63.544	1245.99999999998
63.552	1226
63.56	1207
63.568	1190
63.576	1175
63.584	1168
63.592	1172
63.6	1194
63.608	1243.00000000005
63.616	1325
63.624	1440
63.632	1585
63.64	1756
63.648	1941
63.656	2126
63.664	2296
63.672	2441.00000000011
63.68	2552
63.688	2621
63.696	2651
63.704	2645
63.712	2605
63.72	2537
63.728	2448
63.736	2344.99999999991
63.744	2236
63.752	2124
63.76	2015
63.768	1913
63.776	1820
63.784	1739
63.792	1673
63.8	1621.99999999996
63.808	1584
63.816	1558
63.824	1543
63.832	1538
63.84	1539
63.848	1545
63.856	1553
63.864	1561.00000000001
63.872	1569
63.88	1576
63.888	1580
63.896	1581
63.904	1580
63.912	1576
63.92	1569
63.928	1558.99999999999
63.936	1546
63.944	1530
63.952	1513
63.96	1497
63.968	1480
63.976	1461
63.984	1442
63.992	1421.99999999998
64	1403
64.008	1386
64.016	1368
64.024	1350
64.032	1335
64.04	1330
64.048	1342
64.056	1379
64.064	1448.00000000015
64.072	1552
64.08	1691
64.088	1860.00000000032
64.096	2048
64.104	2241
64.112	2425
64.12	2585
64.128	2712
64.136	2800
64.144	2847
64.152	2856
64.16	2830
64.168	2776
64.176	2700
64.184	2607
64.192	2502.99999999981
64.2	2394
64.208	2284
64.216	2177.99999999982
64.224	2080
64.232	1993
64.24	1918
64.248	1855
64.256	1806
64.264	1767
64.272	1740
64.28	1722
64.288	1711
64.296	1706
64.304	1703
64.312	1702
64.32	1701
64.328	1700
64.336	1695
64.344	1687.99999999999
64.352	1680
64.36	1670
64.368	1658
64.376	1645
64.384	1630
64.392	1613
64.4	1596
64.408	1577
64.416	1558
64.424	1538
64.432	1518
64.44	1499
64.448	1481.99999999997
64.456	1465
64.464	1447
64.472	1425.99999999996
64.48	1405
64.488	1387
64.496	1376
64.504	1379
64.512	1406
64.52	1465
64.528	1561
64.536	1693
64.544	1856
64.552	2037
64.56	2223
64.568	2401
64.576	2556.00000000024
64.584	2676
64.592	2757
64.6	2798
64.608	2799
64.616	2765
64.624	2703
64.632	2619
64.64	2519
64.648	2410
64.656	2295
64.664	2180
64.672	2068
64.68	1963
64.688	1869
64.696	1789
64.704	1722.9999999999
64.712	1670
64.72	1629
64.728	1600
64.736	1580
64.744	1568
64.752	1562
64.76	1559
64.768	1558
64.776	1556
64.784	1552
64.792	1547
64.8	1541
64.808	1532
64.816	1521
64.824	1508
64.832	1491.99999999997
64.84	1475
64.848	1457
64.856	1438
64.864	1417
64.872	1395
64.88	1373
64.888	1352
64.896	1330
64.904	1308
64.912	1288
64.92	1268
64.928	1246
64.936	1225
64.944	1207
64.952	1194
64.96	1191
64.968	1204
64.976	1239
64.984	1304
64.992	1401
65	1531
65.008	1685
65.016	1853
65.024	2024
65.032	2184
65.04	2321
65.048	2426
65.056	2495
65.064	2528
65.072	2524
65.08	2489
65.088	2428.99999999988
65.096	2349
65.104	2255
65.112	2153
65.12	2049
65.128	1946
65.136	1847
65.144	1759
65.152	1683
65.16	1619
65.168	1568
65.176	1529
65.184	1503
65.192	1486.99999999998
65.2	1477
65.208	1472
65.216	1471
65.224	1472
65.232	1472
65.24	1472
65.248	1471
65.256	1470
65.264	1467
65.272	1463
65.28	1458
65.288	1451
65.296	1442
65.304	1429
65.312	1414
65.32	1396.99999999997
65.328	1380
65.336	1362
65.344	1343.99999999997
65.352	1325
65.36	1307
65.368	1289
65.376	1271
65.384	1254
65.392	1236
65.4	1218
65.408	1203
65.416	1195
65.424	1198
65.432	1219
65.44	1266
65.448	1341.00000000016
65.456	1446
65.464	1576
65.472	1726.00000000028
65.48	1887
65.488	2047
65.496	2192
65.504	2311
65.512	2400
65.52	2453
65.528	2471
65.536	2470
65.544	2444
65.552	2382
65.56	2296
65.568	2195
65.576	2087.99999999981
65.584	1980
65.592	1875
65.6	1778
65.608	1691
65.616	1617
65.624	1558
65.632	1513
65.64	1482
65.648	1462
65.656	1453
65.664	1453
65.672	1457
65.68	1462
65.688	1467
65.696	1472
65.704	1474
65.712	1474
65.72	1472
65.728	1467
65.736	1459
65.744	1450
65.752	1438
65.76	1423
65.768	1407
65.776	1388
65.784	1367
65.792	1347
65.8	1326
65.808	1303
65.816	1281
65.824	1260
65.832	1240.99999999997
65.84	1226
65.848	1212
65.856	1199
65.864	1189
65.872	1184
65.88	1189
65.888	1212
65.896	1259
65.904	1339
65.912	1453
65.92	1598
65.928	1767
65.936	1951
65.944	2135
65.952	2304
65.96	2448.00000000022
65.968	2559
65.976	2631
65.984	2662
65.992	2654
66	2613
66.008	2545
66.016	2457
66.024	2356
66.032	2247
66.04	2136
66.048	2027
66.056	1925
66.064	1830.99999999984
66.072	1748
66.08	1678
66.088	1622.99999999992
66.096	1582
66.104	1554
66.112	1540
66.12	1535
66.128	1537
66.136	1545
66.144	1555
66.152	1565
66.16	1574
66.168	1580
66.176	1583
66.184	1582
66.192	1575.99999999999
66.2	1567
66.208	1555
66.216	1539.99999999997
66.224	1522
66.232	1501
66.24	1479
66.248	1457
66.256	1436
66.264	1414
66.272	1392
66.28	1371
66.288	1352
66.296	1334
66.304	1317
66.312	1302
66.32	1287.99999999998
66.328	1279
66.336	1282
66.344	1303.00000000005
66.352	1352
66.36	1435
66.368	1556
66.376	1711
66.384	1893
66.392	2090
66.4	2288
66.408	2473
66.416	2631
66.424	2751
66.432	2831
66.44	2869
66.448	2865.99999999999
66.456	2829
66.464	2765
66.472	2678.99999999983
66.48	2578
66.488	2468
66.496	2355
66.504	2244
66.512	2139
66.52	2044
66.528	1960
66.536	1889
66.544	1833
66.552	1792
66.56	1763
66.568	1746
66.576	1738
66.584	1737
66.592	1741
66.6	1747
66.608	1754
66.616	1759
66.624	1761
66.632	1759
66.64	1753
66.648	1745
66.656	1735
66.664	1722
66.672	1706
66.68	1689
66.688	1672
66.696	1652
66.704	1629.99999999996
66.712	1608
66.72	1587
66.728	1567
66.736	1547
66.744	1528
66.752	1508
66.76	1488
66.768	1469
66.776	1451
66.784	1435
66.792	1426
66.8	1431
66.808	1460
66.816	1521
66.824	1619
66.832	1755.00000000027
66.84	1926
66.848	2119
66.856	2320
66.864	2512
66.872	2682
66.88	2818
66.888	2913
66.896	2968
66.904	2983
66.912	2961
66.92	2909
66.928	2834
66.936	2740
66.944	2634
66.952	2522
66.96	2408.9999999998
66.968	2299
66.976	2196
66.984	2103
66.992	2023
67	1957
67.008	1904
67.016	1862
67.024	1831
67.032	1809
67.04	1794
67.048	1785
67.056	1781
67.064	1777.99999999999
67.072	1774
67.08	1771
67.088	1766.99999999999
67.096	1758
67.104	1745
67.112	1730
67.12	1711
67.128	1689
67.136	1664
67.144	1637
67.152	1609
67.16	1580
67.168	1551
67.176	1522
67.184	1492
67.192	1462.99999999995
67.2	1435
67.208	1407
67.216	1379.99999999995
67.224	1354
67.232	1328
67.24	1303
67.248	1283
67.256	1270
67.264	1270
67.272	1293
67.28	1346
67.288	1433
67.296	1557
67.304	1713
67.312	1891
67.32	2078.00000000033
67.328	2259
67.336	2421
67.344	2553.0000000002
67.352	2648
67.36	2703
67.368	2719
67.376	2698
67.384	2646
67.392	2570
67.4	2476
67.408	2372
67.416	2263
67.424	2154
67.432	2047
67.44	1944
67.448	1848.99999999984
67.456	1767
67.464	1698
67.472	1640.99999999991
67.48	1598
67.488	1567
67.496	1547
67.504	1535
67.512	1528
67.52	1524
67.528	1522
67.536	1521
67.544	1520
67.552	1518
67.56	1515
67.568	1511
67.576	1505.99999999998
67.584	1467
67.592	1410
67.6	1372
67.608	1343
67.616	1318
67.624	1292
67.632	1264
67.64	1235
67.648	1208
67.656	1181
67.664	1156
67.672	1131
67.68	1107
67.688	1085
67.696	1063
67.704	1040.99999999996
67.712	1021
67.72	1006
67.728	1002
67.736	1018
67.744	1060
67.752	1133
67.76	1241
67.768	1382
67.776	1548
67.784	1730
67.792	1917
67.8	2094
67.808	2247
67.816	2368
67.824	2449
67.832	2490
67.84	2490
67.848	2455
67.856	2394
67.864	2310
67.872	2210
67.88	2101
67.888	1987
67.896	1873
67.904	1766
67.912	1668
67.92	1580
67.928	1505
67.936	1444
67.944	1395
67.952	1360
67.96	1336.99999999997
67.968	1325
67.976	1321
67.984	1324
67.992	1330
68	1337
68.008	1345
68.016	1352
68.024	1356
68.032	1356
68.04	1352
68.048	1345
68.056	1336
68.064	1323.99999999998
68.072	1311
68.08	1296
68.088	1275.99999999996
68.096	1253
68.104	1229
68.112	1204
68.12	1178
68.128	1153
68.136	1129
68.144	1106
68.152	1083
68.16	1061
68.168	1040
68.176	1020
68.184	1005
68.192	1001
68.2	1015
68.208	1055
68.216	1127.00000000015
68.224	1235
68.232	1377
68.24	1545
68.248	1730
68.256	1920
68.264	2101
68.272	2260
68.28	2386
68.288	2475
68.296	2525
68.304	2536
68.312	2512
68.32	2456.99999999988
68.328	2378
68.336	2282
68.344	2175.99999999981
68.352	2066
68.36	1956
68.368	1850
68.376	1751
68.384	1662
68.392	1584
68.4	1519
68.408	1468
68.416	1428
68.424	1400
68.432	1383
68.44	1376
68.448	1376
68.456	1381
68.464	1390
68.472	1399.00000000002
68.48	1408
68.488	1414
68.496	1417
68.504	1417
68.512	1413
68.52	1406
68.528	1395
68.536	1381
68.544	1363
68.552	1343
68.56	1322
68.568	1298
68.576	1271.99999999995
68.584	1245
68.592	1219
68.6	1194.99999999996
68.608	1172
68.616	1150
68.624	1129
68.632	1109
68.64	1091
68.648	1079
68.656	1079
68.664	1097
68.672	1144
68.68	1226
68.688	1346
68.696	1503
68.704	1688.00000000034
68.712	1888
68.72	2091
68.728	2282
68.736	2447
68.744	2580
68.752	2674
68.76	2727
68.768	2741
68.776	2718
68.784	2664
68.792	2587
68.8	2492
68.808	2385
68.816	2275
68.824	2164
68.832	2054.99999999981
68.84	1954
68.848	1863
68.856	1785
68.864	1722
68.872	1673
68.88	1637
68.888	1613
68.896	1599
68.904	1594
68.912	1595
68.92	1600
68.928	1606
68.936	1613
68.944	1620
68.952	1624
68.96	1625
68.968	1623
68.976	1617
68.984	1607
68.992	1593
69	1576
69.008	1556
69.016	1533
69.024	1509
69.032	1485
69.04	1462
69.048	1439
69.056	1417
69.064	1394.99999999996
69.072	1371
69.08	1347
69.088	1323.99999999996
69.096	1301
69.104	1281
69.112	1267
69.12	1268
69.128	1291
69.136	1345
69.144	1437
69.152	1568
69.16	1734
69.168	1928
69.176	2136
69.184	2343
69.192	2536.00000000032
69.2	2702
69.208	2832
69.216	2920.00000000011
69.224	2966
69.232	2973
69.24	2944
69.248	2884
69.256	2801
69.264	2701
69.272	2591
69.28	2475
69.288	2358
69.296	2246
69.304	2142
69.312	2049
69.32	1969.99999999987
69.328	1902
69.336	1847
69.344	1807.99999999994
69.352	1781
69.36	1764
69.368	1755
69.376	1754
69.384	1757
69.392	1763
69.4	1768
69.408	1770
69.416	1770
69.424	1766
69.432	1757
69.44	1745
69.448	1728.99999999997
69.456	1709
69.464	1686
69.472	1660.99999999995
69.48	1635
69.488	1607
69.496	1578
69.504	1546
69.512	1513
69.52	1482
69.528	1451
69.536	1421
69.544	1392
69.552	1364
69.56	1338
69.568	1314
69.576	1293.99999999998
69.584	1285
69.592	1295
69.6	1332.00000000009
