Time	PPG1
0	1834
0.008	1807
0.016	1788
0.024	1776
0.032	1769
0.04	1766
0.048	1765
0.056	1764
0.064	1762
0.072	1759
0.08	1754
0.088	1745
0.096	1734
0.104	1719
0.112	1701
0.12	1681
0.128	1659
0.136	1635
0.144	1608
0.152	1579
0.16	1551
0.168	1523
0.176	1496
0.184	1469
0.192	1441
0.2	1414
0.208	1390
0.216	1373
0.224	1371
0.232	1390
0.24	1438
0.248	1521
0.256	1641
0.264	1796
0.272	1977
0.28	2173
0.288	2371
0.296	2560
0.304	2730
0.312	2873
0.32	2983
0.328	3058
0.336	3096
0.344	3098
0.352	3068
0.36	3010
0.368	2929
0.376	2831
0.384	2721
0.392	2605
0.4	2487
0.408	2371
0.416	2260
0.424	2155
0.432	2060
0.44	1975
0.448	1902
0.456	1841
0.464	1793
0.472	1757
0.48	1706
0.488	1649
0.496	1617
0.504	1598
0.512	1586
0.52	1576
0.528	1566
0.536	1557
0.544	1549
0.552	1538
0.56	1523
0.568	1506
0.576	1484
0.584	1460
0.592	1435
0.6	1409
0.608	1382
0.616	1354
0.624	1326
0.632	1298
0.64	1270
0.648	1242
0.656	1214
0.664	1187
0.672	1162
0.68	1138
0.688	1120
0.696	1113
0.704	1121
0.712	1149
0.72	1204
0.728	1291
0.736	1413
0.744	1566
0.752	1740
0.76	1926
0.768	2114
0.776	2292
0.784	2450
0.792	2580
0.8	2677
0.808	2739
0.816	2764
0.824	2754
0.832	2714
0.84	2648
0.848	2563
0.856	2465
0.864	2359
0.872	2249
0.88	2138
0.888	2029
0.896	1926
0.904	1829
0.912	1741
0.92	1664
0.928	1599
0.936	1547
0.944	1507
0.952	1479
0.96	1460
0.968	1448
0.976	1442
0.984	1440
0.992	1440
1	1441
1.008	1442
1.016	1440
1.024	1436
1.032	1428
1.04	1418
1.048	1407
1.056	1393
1.064	1375
1.072	1355
1.08	1333
1.088	1308
1.096	1283
1.104	1259
1.112	1234
1.12	1209
1.128	1186
1.136	1163
1.144	1142
1.152	1123
1.16	1108
1.168	1099
1.176	1102
1.184	1121
1.192	1162
1.2	1230
1.208	1328
1.216	1452
1.224	1598
1.232	1759
1.24	1927
1.248	2093
1.256	2246
1.264	2377
1.272	2482
1.28	2554
1.288	2593
1.296	2601
1.304	2579
1.312	2531
1.32	2461
1.328	2375
1.336	2279
1.344	2177
1.352	2073
1.36	1971
1.368	1872
1.376	1779
1.384	1696
1.392	1621
1.4	1558
1.408	1506
1.416	1465
1.424	1437
1.432	1421
1.44	1414
1.448	1412
1.456	1413
1.464	1418
1.472	1424
1.48	1428
1.488	1430
1.496	1430
1.504	1428
1.512	1422
1.52	1413
1.528	1404
1.536	1391
1.544	1374
1.552	1354
1.56	1332
1.568	1308
1.576	1284
1.584	1260
1.592	1236
1.6	1213
1.608	1191
1.616	1168
1.624	1147
1.632	1133
1.64	1127
1.648	1133
1.656	1157
1.664	1205
1.672	1281
1.68	1387
1.688	1520
1.696	1676
1.704	1848
1.712	2024
1.72	2195
1.728	2351
1.736	2484
1.744	2587
1.752	2656
1.76	2688
1.768	2687
1.776	2658
1.784	2604
1.792	2530
1.8	2439
1.808	2339
1.816	2235
1.824	2129
1.832	2024
1.84	1924
1.848	1831
1.856	1747
1.864	1674
1.872	1614
1.88	1567
1.888	1531
1.896	1506
1.904	1490
1.912	1482
1.92	1480
1.928	1483
1.936	1489
1.944	1495
1.952	1501
1.96	1505
1.968	1507
1.976	1507
1.984	1504
1.992	1496
2	1485
2.008	1471
2.016	1453
2.024	1433
2.032	1411
2.04	1388
2.048	1363
2.056	1338
2.064	1312
2.072	1288
2.08	1267
2.088	1248
2.096	1233
2.104	1227
2.112	1235
2.12	1264
2.128	1319
2.136	1405
2.144	1524
2.152	1675
2.16	1851
2.168	2042
2.176	2237
2.184	2425
2.192	2594
2.2	2737
2.208	2850
2.216	2926
2.224	2965
2.232	2969
2.24	2941
2.248	2887
2.256	2811
2.264	2715.99999999999
2.272	2608.99999999999
2.28	2498.99999999999
2.288	2386.99999999999
2.296	2274.99999999999
2.304	2167.99999999999
2.312	2069
2.32	1981
2.328	1904
2.336	1838
2.344	1785
2.352	1744
2.36	1714
2.368	1696
2.376	1687
2.384	1685
2.392	1686
2.4	1687
2.408	1688
2.416	1688
2.424	1687
2.432	1684
2.44	1677
2.448	1669
2.456	1659
2.464	1645
2.472	1626
2.48	1603
2.488	1579
2.496	1553
2.504	1526
2.512	1499
2.52	1473
2.528	1447
2.536	1422
2.544	1397
2.552	1373
2.56	1352
2.568	1337
2.576	1334
2.584	1351
2.592	1396
2.6	1473
2.608	1586
2.616	1732
2.624	1907
2.632	2100
2.64	2298
2.648	2491
2.656	2668
2.664	2818
2.672	2935
2.68	3016
2.688	3058
2.696	3064
2.704	3037
2.712	2981
2.72	2902
2.728	2805
2.736	2696
2.744	2579
2.752	2458.99999999999
2.76	2340.99999999999
2.768	2229.99999999999
2.776	2126.99999999999
2.784	2035
2.792	1954
2.8	1885
2.808	1830
2.816	1787
2.824	1757
2.832	1736
2.84	1721
2.848	1712
2.856	1706
2.864	1701
2.872	1696
2.88	1689
2.888	1681
2.896	1672
2.904	1659
2.912	1644
2.92	1625
2.928	1602
2.936	1577
2.944	1552
2.952	1523
2.96	1492
2.968	1459
2.976	1426
2.984	1393
2.992	1361
3	1330
3.008	1300
3.016	1271
3.024	1244
3.032	1221
3.04	1208
3.048	1209
3.056	1232
3.064	1282
3.072	1365
3.08	1484
3.088	1633
3.096	1807
3.104	1995
3.112	2185
3.12	2366
3.128	2525
3.136	2656
3.144	2752
3.152	2811
3.16	2834
3.168	2822
3.176	2780
3.184	2713
3.192	2626
3.2	2523
3.208	2411
3.216	2293
3.224	2172
3.232	2053
3.24	1943
3.248	1844
3.256	1758
3.264	1686
3.272	1628
3.28	1584
3.288	1553
3.296	1533
3.304	1521
3.312	1516
3.32	1515
3.328	1517
3.336	1520
3.344	1523
3.352	1526
3.36	1526
3.368	1523
3.376	1517
3.384	1507
3.392	1493
3.4	1475
3.408	1454
3.416	1432
3.424	1409
3.432	1385
3.44	1361
3.448	1336
3.456	1310
3.464	1286
3.472	1264
3.48	1242
3.488	1221
3.496	1204
3.504	1189
3.512	1182
3.52	1186
3.528	1207
3.536	1252
3.544	1321
3.552	1417
3.56	1539
3.568	1683
3.576	1841
3.584	2003
3.592	2159
3.6	2300
3.608	2419
3.616	2510
3.624	2567
3.632	2591
3.64	2582
3.648	2544
3.656	2482
3.664	2400
3.672	2304
3.68	2200
3.688	2091
3.696	1984
3.704	1882
3.712	1787
3.72	1702
3.728	1627
3.736	1566
3.744	1517
3.752	1480
3.76	1452
3.768	1434
3.776	1425
3.784	1424
3.792	1427
3.8	1432
3.808	1437
3.816	1442
3.824	1445
3.832	1446
3.84	1444
3.848	1440
3.856	1432
3.864	1420
3.872	1406
3.88	1390
3.888	1371
3.896	1349
3.904	1326
3.912	1303
3.92	1282
3.928	1262
3.936	1243
3.944	1224
3.952	1205
3.96	1189
3.968	1175
3.976	1168
3.984	1174
3.992	1199
4	1246
4.008	1317
4.016	1416
4.024	1539
4.032	1684
4.04	1845
4.048	2013
4.056	2175
4.064	2322
4.072	2447
4.08	2544
4.088	2608
4.096	2638
4.104	2635
4.112	2601
4.12	2538
4.128	2454
4.136	2356
4.144	2250
4.152	2140
4.16	2030
4.168	1924
4.176	1825
4.184	1735
4.192	1656
4.2	1591
4.208	1540
4.216	1501
4.224	1476
4.232	1462
4.24	1457
4.248	1461
4.256	1469
4.264	1478
4.272	1487
4.28	1495
4.288	1501
4.296	1504
4.304	1503
4.312	1499
4.32	1491
4.328	1481
4.336	1467
4.344	1448
4.352	1426
4.36	1402
4.368	1376
4.376	1349
4.384	1321
4.392	1294
4.4	1269
4.408	1247
4.416	1227
4.424	1209
4.432	1197
4.44	1196
4.448	1213
4.456	1254
4.464	1321
4.472	1420
4.48	1550
4.488	1709
4.496	1889
4.504	2078.00000000002
4.512	2265.00000000002
4.52	2440.00000000002
4.528	2593.00000000002
4.536	2718.00000000001
4.544	2808.00000000001
4.552	2862
4.56	2880
4.568	2863
4.576	2781.99999999999
4.584	2660.99999999999
4.592	2549.99999999999
4.6	2438.99999999999
4.608	2327.99999999999
4.616	2218
4.624	2112
4.632	2012
4.64	1920
4.648	1839
4.656	1771
4.664	1715
4.672	1673
4.68	1645
4.688	1629
4.696	1622
4.704	1621
4.712	1626
4.72	1632
4.728	1637
4.736	1641
4.744	1642
4.752	1640
4.76	1636
4.768	1629
4.776	1619
4.784	1606
4.792	1589
4.8	1569
4.808	1548
4.816	1527
4.824	1507
4.832	1487
4.84	1467
4.848	1445
4.856	1421
4.864	1398
4.872	1376
4.88	1356
4.888	1341
4.896	1336
4.904	1344
4.912	1373
4.92	1429
4.928	1515
4.936	1634
4.944	1781
4.952	1950
4.96	2130
4.968	2311
4.976	2483
4.984	2635
4.992	2760
5	2852
5.008	2908
5.016	2927
5.024	2912
5.032	2868
5.04	2799
5.048	2709
5.056	2605
5.064	2492
5.072	2374
5.08	2258
5.088	2149
5.096	2049
5.104	1960
5.112	1884
5.12	1822
5.128	1775
5.136	1741
5.144	1716
5.152	1699
5.16	1691
5.168	1689
5.176	1691
5.184	1695
5.192	1697
5.2	1695
5.208	1689
5.216	1679
5.224	1665
5.232	1648
5.24	1629
5.248	1610
5.256	1588
5.264	1564
5.272	1541
5.28	1519
5.288	1497
5.296	1476
5.304	1453
5.312	1428
5.32	1403
5.328	1380
5.336	1356
5.344	1333
5.352	1316
5.36	1310
5.368	1320
5.376	1351
5.384	1411
5.392	1502
5.4	1624
5.408	1774
5.416	1944
5.424	2124
5.432	2301
5.44	2464
5.448	2603
5.456	2712
5.464	2784
5.472	2820
5.48	2821
5.488	2789
5.496	2729
5.504	2646.99999999999
5.512	2546.99999999999
5.52	2434.99999999999
5.528	2317.99999999999
5.536	2199.99999999999
5.544	2084.99999999999
5.552	1977.99999999999
5.56	1880.99999999999
5.568	1795.99999999999
5.576	1724.99999999999
5.584	1669.99999999999
5.592	1626
5.6	1593
5.608	1571
5.616	1556
5.624	1546
5.632	1540
5.64	1535
5.648	1531
5.656	1526
5.664	1519
5.672	1512
5.68	1503
5.688	1492
5.696	1477
5.704	1460
5.712	1440
5.72	1418
5.728	1395
5.736	1372
5.744	1347
5.752	1321
5.76	1295
5.768	1270
5.776	1246
5.784	1223
5.792	1200
5.8	1177
5.808	1158
5.816	1144
5.824	1139
5.832	1148
5.84	1175
5.848	1227
5.856	1306
5.864	1411
5.872	1541
5.88	1690
5.888	1849
5.896	2010
5.904	2161
5.912	2294
5.92	2401
5.928	2476
5.936	2515
5.944	2520
5.952	2492
5.96	2437
5.968	2360
5.976	2266
5.984	2163
5.992	2057
6	1950
6.008	1844
6.016	1746
6.024	1658
6.032	1581
6.04	1518
6.048	1466
6.056	1426
6.064	1399
6.072	1383
6.08	1375
6.088	1374
6.096	1377
6.104	1382
6.112	1386
6.12	1390
6.128	1392
6.136	1391
6.144	1389
6.152	1384
6.16	1375
6.168	1364
6.176	1349
6.184	1331
6.192	1310
6.2	1288
6.208	1267
6.216	1246
6.224	1224
6.232	1201
6.24	1177
6.248	1155
6.256	1136
6.264	1119
6.272	1107
6.28	1102
6.288	1108
6.296	1129
6.304	1169
6.312	1232
6.32	1320
6.328	1433
6.336	1567
6.344	1716
6.352	1872
6.36	2025
6.368	2166
6.376	2285
6.384	2376
6.392	2434
6.4	2458
6.408	2449
6.416	2409
6.424	2342
6.432	2254
6.44	2152
6.448	2043
6.456	1932
6.464	1822
6.472	1720
6.48	1629
6.488	1551
6.496	1486
6.504	1435
6.512	1400
6.52	1377
6.528	1365
6.536	1361
6.544	1363
6.552	1369
6.56	1376
6.568	1380
6.576	1382
6.584	1383
6.592	1383
6.6	1381
6.608	1377
6.616	1370
6.624	1372
6.632	1378
6.64	1373
6.648	1362
6.656	1345
6.664	1325
6.672	1303
6.68	1281
6.688	1260
6.696	1239
6.704	1219
6.712	1201
6.72	1188
6.728	1179
6.736	1177
6.744	1186
6.752	1209
6.76	1253
6.768	1322
6.776	1418
6.784	1542
6.792	1690
6.8	1854
6.808	2025
6.816	2192
6.824	2342
6.832	2469
6.84	2567
6.848	2629
6.856	2654
6.864	2644
6.872	2602
6.88	2488
6.888	2391
6.896	2280
6.904	2049
6.912	1940
6.92	1840
6.928	1678
6.936	1619
6.944	1573
6.952	1526
6.96	1509
6.968	1502
6.976	1501
6.984	1506
6.992	1513
7	1521
7.008	1528
7.016	1532
7.024	1534
7.032	1533
7.04	1529
7.048	1516
7.056	1504
7.064	1488
7.072	1461
7.08	1442
7.088	1422
7.096	1403
7.104	1385
7.112	1365
7.12	1344
7.128	1323
7.136	1304
7.144	1288
7.152	1278
7.16	1278
7.168	1294
7.176	1330
7.184	1392
7.192	1485
7.2	1609
7.208	1759
7.216	1929
7.224	2110
7.232	2290
7.24	2459
7.248	2607
7.256	2725
7.264	2808
7.272	2854
7.28	2864
7.288	2840
7.296	2787
7.304	2710
7.312	2612
7.32	2502
7.328	2386
7.336	2268
7.344	2155
7.352	2052
7.36	1958
7.368	1876
7.376	1809
7.384	1757
7.392	1719
7.4	1694
7.408	1679
7.416	1673
7.424	1672
7.432	1673
7.44	1675
7.448	1676
7.456	1676
7.464	1675
7.472	1673
7.48	1668
7.488	1659
7.496	1648
7.504	1633
7.512	1616
7.52	1595
7.528	1572
7.536	1548
7.544	1523
7.552	1498
7.56	1472
7.568	1447
7.576	1425
7.584	1405
7.592	1386
7.6	1368
7.608	1356
7.616	1355
7.624	1371
7.632	1412.00000000001
7.64	1485.00000000001
7.648	1593.00000000001
7.656	1735.00000000002
7.664	1904.00000000002
7.672	2090.00000000002
7.68	2284
7.688	2472
7.696	2642
7.704	2785
7.712	2894
7.72	2964
7.728	2996
7.736	2990
7.744	2950
7.752	2881
7.76	2789
7.768	2679
7.776	2556
7.784	2428
7.792	2301
7.8	2179
7.808	2068
7.816	1970
7.824	1885
7.832	1815
7.84	1760
7.848	1719
7.856	1691
7.864	1673
7.872	1662
7.88	1655
7.888	1652
7.896	1649
7.904	1647
7.912	1643
7.92	1635
7.928	1623
7.936	1606
7.944	1585
7.952	1563
7.96	1539
7.968	1513
7.976	1486
7.984	1458
7.992	1429
8	1401
8.008	1372.99999999999
8.016	1344
8.024	1314.99999999999
8.032	1287
8.04	1258.99999999999
8.048	1232
8.056	1208
8.064	1191
8.072	1185
8.08	1194
8.088	1223.00000000001
8.096	1279
8.104	1366.00000000002
8.112	1483
8.12	1629.00000000003
8.128	1797
8.136	1977.00000000004
8.144	2157
8.152	2324.00000000003
8.16	2468
8.168	2581.00000000002
8.176	2657
8.184	2693
8.192	2691
8.2	2653
8.208	2582
8.216	2485
8.224	2370
8.232	2243
8.24	2114
8.248	1987
8.256	1867
8.264	1758
8.272	1662
8.28	1580
8.288	1514
8.296	1463
8.304	1425
8.312	1399
8.32	1383
8.328	1374
8.336	1370
8.344	1370
8.352	1372
8.36	1374
8.368	1375
8.376	1376
8.384	1375
8.392	1372
8.4	1365
8.408	1355
8.416	1341
8.424	1324
8.432	1304
8.44	1282
8.448	1259
8.456	1235
8.464	1210
8.472	1185
8.48	1160
8.488	1134
8.496	1109
8.504	1086
8.512	1066
8.52	1052
8.528	1046
8.536	1051
8.544	1073
8.552	1116
8.56	1184
8.568	1279
8.576	1401
8.584	1547
8.592	1710
8.6	1879
8.608	2044
8.616	2193
8.624	2316
8.632	2406
8.64	2449
8.648	2449
8.656	2422
8.664	2369
8.672	2294
8.68	2200
8.688	2096
8.696	1987
8.704	1878
8.712	1773
8.72	1677
8.728	1593
8.736	1522
8.744	1464
8.752	1420
8.76	1388
8.768	1367
8.776	1357
8.784	1355
8.792	1358
8.8	1363
8.808	1370
8.816	1377
8.824	1384
8.832	1388
8.84	1390
8.848	1389
8.856	1385
8.864	1378
8.872	1367
8.88	1354
8.888	1337
8.896	1318
8.904	1298
8.912	1277
8.92	1256
8.928	1234
8.936	1211
8.944	1189
8.952	1169
8.96	1151
8.968	1136
8.976	1126
8.984	1125
8.992	1139
9	1171
9.008	1224.00000000001
9.016	1302
9.024	1407.00000000003
9.032	1537
9.04	1686.00000000003
9.048	1845
9.056	2004.00000000003
9.064	2152
9.072	2280.00000000002
9.08	2378
9.088	2442.00000000001
9.096	2472
9.104	2468
9.112	2430
9.12	2363.99999999998
9.128	2276
9.136	2170.99999999998
9.144	2058
9.152	1941.99999999997
9.16	1829
9.168	1724.99999999998
9.176	1632
9.184	1551.99999999998
9.192	1487
9.2	1436.99999999999
9.208	1402
9.216	1379
9.224	1367
9.232	1363
9.24	1363
9.248	1367
9.256	1374
9.264	1380
9.272	1385
9.28	1389
9.288	1390
9.296	1388
9.304	1384
9.312	1377
9.32	1368
9.328	1356
9.336	1343
9.344	1328
9.352	1310
9.36	1292
9.368	1272
9.376	1250
9.384	1227
9.392	1205
9.4	1183
9.408	1161
9.416	1142
9.424	1127
9.432	1120
9.44	1127
9.448	1154
9.456	1204
9.464	1284
9.472	1396
9.48	1537
9.488	1702
9.496	1881
9.504	2062
9.512	2231
9.52	2380
9.528	2499
9.536	2582
9.544	2625
9.552	2631
9.56	2602
9.568	2543
9.576	2460
9.584	2357
9.592	2243
9.6	2123
9.608	2004
9.616	1890
9.624	1785
9.632	1695
9.64	1620
9.648	1559
9.656	1514
9.664	1484
9.672	1467
9.68	1460
9.688	1459
9.696	1463
9.704	1471
9.712	1480
9.72	1488
9.728	1495
9.736	1500
9.744	1501
9.752	1499
9.76	1494
9.768	1485
9.776	1473
9.784	1458
9.792	1440
9.8	1421
9.808	1402
9.816	1382
9.824	1362
9.832	1341
9.84	1320
9.848	1299
9.856	1280
9.864	1262
9.872	1247
9.88	1239
9.888	1243
9.896	1266
9.904	1314
9.912	1393
9.92	1506
9.928	1651
9.936	1823
9.944	2010
9.952	2200
9.96	2381
9.968	2540
9.976	2667
9.984	2758
9.992	2808
10	2818
10.008	2791.99999999999
10.016	2734
10.024	2649.99999999998
10.032	2547
10.04	2430.99999999997
10.048	2308
10.056	2183.99999999997
10.064	2063
10.072	1949.99999999998
10.08	1850
10.088	1764.99999999998
10.096	1696
10.104	1641.99999999999
10.112	1601
10.12	1571.99999999999
10.128	1553
10.136	1543
10.144	1539
10.152	1539
10.16	1541
10.168	1543
10.176	1544
10.184	1542
10.192	1537
10.2	1530
10.208	1520
10.216	1508
10.224	1495
10.232	1481
10.24	1464
10.248	1444
10.256	1423
10.264	1401
10.272	1377
10.28	1352
10.288	1326
10.296	1301
10.304	1277
10.312	1252
10.32	1226
10.328	1204
10.336	1191
10.344	1193
10.352	1217
10.36	1271
10.368	1359
10.376	1482
10.384	1637
10.392	1816
10.4	2006
10.408	2194
10.416	2365
10.424	2509
10.432	2616
10.44	2681
10.448	2706
10.456	2692
10.464	2643
10.472	2565
10.48	2463
10.488	2344
10.496	2215
10.504	2082
10.512	1950
10.52	1826
10.528	1714
10.536	1617
10.544	1536
10.552	1469
10.56	1418
10.568	1380
10.576	1355
10.584	1342
10.592	1335
10.6	1333
10.608	1333
10.616	1333
10.624	1332
10.632	1328
10.64	1322
10.648	1315
10.656	1308
10.664	1298
10.672	1286
10.68	1273
10.688	1270
10.696	1268
10.704	1254
10.712	1236
10.72	1215
10.728	1191
10.736	1166
10.744	1141
10.752	1117
10.76	1094
10.768	1071
10.776	1049
10.784	1030
10.792	1017
10.8	1017
10.808	1036
10.816	1080
10.824	1155
10.832	1263
10.84	1401
10.848	1564
10.856	1741
10.864	1921
10.872	2091
10.88	2239
10.888	2357
10.896	2437
10.904	2475
10.912	2473
10.92	2434
10.928	2362
10.936	2265
10.944	2151
10.952	2027
10.96	1899
10.968	1773
10.976	1655
10.984	1549
10.992	1458
11	1383
11.008	1324.99999999999
11.016	1281
11.024	1250.99999999999
11.032	1233
11.04	1224
11.048	1221
11.056	1222
11.064	1225
11.072	1230
11.08	1234
11.088	1238
11.096	1242
11.104	1244
11.112	1243
11.12	1240
11.128	1233
11.136	1225
11.144	1214
11.152	1200
11.16	1184
11.168	1166
11.176	1147
11.184	1127
11.192	1106
11.2	1084
11.208	1062
11.216	1040
11.224	1020
11.232	1004
11.24	993
11.248	990
11.256	998
11.264	1022
11.272	1069
11.28	1145
11.288	1251
11.296	1385
11.304	1542
11.312	1714
11.32	1889
11.328	2054
11.336	2197
11.344	2310
11.352	2385
11.36	2420
11.368	2415
11.376	2375
11.384	2304
11.392	2209
11.4	2097
11.408	1974
11.416	1849
11.424	1729
11.432	1616
11.44	1514
11.448	1427
11.456	1356
11.464	1300
11.472	1261
11.48	1237
11.488	1223
11.496	1218
11.504	1219
11.512	1224
11.52	1230
11.528	1236
11.536	1241
11.544	1246
11.552	1248
11.56	1247
11.568	1244
11.576	1237
11.584	1229
11.592	1220
11.6	1208
11.608	1194
11.616	1178
11.624	1160
11.632	1141
11.64	1123
11.648	1105
11.656	1086
11.664	1066
11.672	1046
11.68	1027
11.688	1012
11.696	1002
11.704	1001
11.712	1016
11.72	1052
11.728	1116
11.736	1213
11.744	1343
11.752	1502
11.76	1681
11.768	1868
11.776	2049
11.784	2213
11.792	2348
11.8	2446
11.808	2505
11.816	2523
11.824	2502
11.832	2448
11.84	2365
11.848	2261
11.856	2142
11.864	2014
11.872	1885
11.88	1761
11.888	1646
11.896	1544
11.904	1458
11.912	1388
11.92	1335
11.928	1298
11.936	1275
11.944	1264
11.952	1261
11.96	1266
11.968	1274
11.976	1283
11.984	1292
11.992	1299
12	1305
12.008	1309
12.016	1310
12.024	1307
12.032	1302
12.04	1294
12.048	1283
12.056	1271
12.064	1257
12.072	1241
12.08	1226
12.088	1210
12.096	1193
12.104	1176
12.112	1157
12.12	1137
12.128	1117
12.136	1098
12.144	1082
12.152	1074
12.16	1080
12.168	1110.00000000001
12.176	1171
12.184	1268.00000000003
12.192	1401
12.2	1567.00000000004
12.208	1756
12.216	1955.00000000004
12.224	2152
12.232	2333.00000000004
12.24	2487
12.248	2603.00000000002
12.256	2678
12.264	2711
12.272	2704
12.28	2660.99999999999
12.288	2589
12.296	2493
12.304	2380
12.312	2257
12.32	2131
12.328	2006
12.336	1888
12.344	1781
12.352	1688
12.36	1611
12.368	1551
12.376	1506
12.384	1475
12.392	1458
12.4	1450
12.408	1448
12.416	1450
12.424	1455
12.432	1461
12.44	1466
12.448	1468
12.456	1467
12.464	1464
12.472	1458
12.48	1451
12.488	1443
12.496	1431
12.504	1416
12.512	1398
12.52	1378
12.528	1357
12.536	1335
12.544	1313
12.552	1291
12.56	1269
12.568	1248
12.576	1226
12.584	1204
12.592	1183
12.6	1166
12.608	1158
12.616	1168
12.624	1204
12.632	1273
12.64	1382
12.648	1530
12.656	1711
12.664	1915
12.672	2126
12.68	2327
12.688	2504
12.696	2643
12.704	2740
12.712	2794
12.72	2806
12.728	2779
12.736	2745
12.744	2699
12.752	2616
12.76	2510
12.768	2393
12.776	2272
12.784	2151
12.792	2038
12.8	1937
12.808	1850
12.816	1776
12.824	1718
12.832	1674
12.84	1641
12.848	1620
12.856	1607
12.864	1599
12.872	1595
12.88	1594
12.888	1592
12.896	1590
12.904	1587
12.912	1581
12.92	1573
12.928	1563
12.936	1548
12.944	1528
12.952	1507
12.96	1486
12.968	1462
12.976	1436
12.984	1410
12.992	1385
13	1361
13.008	1335.99999999999
13.016	1311
13.024	1287.99999999999
13.032	1264
13.04	1239.99999999999
13.048	1216
13.056	1195
13.064	1183
13.072	1184
13.08	1205
13.088	1256.00000000001
13.096	1340
13.104	1459.00000000003
13.112	1610
13.12	1783.00000000004
13.128	1967
13.136	2149.00000000004
13.144	2315
13.152	2452.00000000003
13.16	2552
13.168	2611.00000000001
13.176	2630
13.184	2610.99999999999
13.192	2560
13.2	2481.99999999998
13.208	2385
13.216	2274.99999999997
13.224	2157
13.232	2036.99999999997
13.24	1919
13.248	1807.99999999998
13.256	1708
13.264	1620.99999999998
13.272	1549
13.28	1491.99999999999
13.288	1448
13.296	1418
13.304	1401
13.312	1394
13.32	1392
13.328	1393
13.336	1397
13.344	1402
13.352	1405
13.36	1406
13.368	1403
13.376	1399
13.384	1394
13.392	1386
13.4	1377
13.408	1367
13.416	1355
13.424	1341
13.432	1324
13.44	1306
13.448	1289
13.456	1272
13.464	1253
13.472	1234
13.48	1214
13.488	1194
13.496	1174
13.504	1155
13.512	1139
13.52	1127
13.528	1123
13.536	1134
13.544	1164
13.552	1219
13.56	1305
13.568	1421
13.576	1564
13.584	1725
13.592	1893
13.6	2056
13.608	2203
13.616	2324
13.624	2409
13.632	2456
13.64	2466
13.648	2442
13.656	2388
13.664	2310
13.672	2214
13.68	2108
13.688	1998
13.696	1889
13.704	1786
13.712	1691
13.72	1608
13.728	1537
13.736	1479
13.744	1435
13.752	1405
13.76	1387
13.768	1380
13.776	1381
13.784	1387
13.792	1394
13.8	1401
13.808	1408
13.816	1412
13.824	1414
13.832	1415
13.84	1414
13.848	1409
13.856	1403
13.864	1396
13.872	1386
13.88	1374
13.888	1361
13.896	1346
13.904	1329
13.912	1312
13.92	1294
13.928	1276
13.936	1258
13.944	1241
13.952	1224
13.96	1205
13.968	1188
13.976	1176
13.984	1171
13.992	1178
14	1205
14.008	1259.00000000001
14.016	1343
14.024	1459.00000000003
14.032	1604
14.04	1769.00000000004
14.048	1944
14.056	2114.00000000004
14.064	2267
14.072	2395.00000000002
14.08	2489
14.088	2545.00000000001
14.096	2564
14.104	2546.99999999999
14.112	2499
14.12	2424.99999999998
14.128	2331
14.136	2223.99999999998
14.144	2111
14.152	1996.99999999998
14.16	1887
14.168	1786.99999999998
14.176	1698
14.184	1621.99999999999
14.192	1562
14.2	1516.99999999999
14.208	1485
14.216	1465
14.224	1456
14.232	1455
14.24	1462
14.248	1473
14.256	1486
14.264	1498
14.272	1508
14.28	1514
14.288	1517
14.296	1517
14.304	1511
14.312	1502
14.32	1491
14.328	1478
14.336	1463
14.344	1446
14.352	1426
14.36	1406
14.368	1386
14.376	1366
14.384	1346
14.392	1326
14.4	1307
14.408	1290
14.416	1272
14.424	1255
14.432	1242
14.44	1235
14.448	1243
14.456	1271
14.464	1324
14.472	1409
14.48	1528
14.488	1676
14.496	1848
14.504	2033
14.512	2216
14.52	2381
14.528	2519
14.536	2622
14.544	2687
14.552	2714
14.56	2703
14.568	2660
14.576	2591
14.584	2503
14.592	2402
14.6	2294
14.608	2184
14.616	2077
14.624	1978
14.632	1889
14.64	1813
14.648	1751
14.656	1703
14.664	1667
14.672	1643
14.68	1631
14.688	1628
14.696	1632
14.704	1640
14.712	1650
14.72	1661
14.728	1670
14.736	1676
14.744	1679
14.752	1678
14.76	1673
14.768	1665
14.776	1654
14.784	1662
14.792	1679
14.8	1679
14.808	1669
14.816	1654
14.824	1636
14.832	1617
14.84	1598
14.848	1579
14.856	1562
14.864	1544
14.872	1526
14.88	1508
14.888	1490
14.896	1477
14.904	1478
14.912	1501
14.92	1555
14.928	1646
14.936	1776
14.944	1942
14.952	2136
14.96	2344
14.968	2549
14.976	2736
14.984	2891
14.992	3007
15	3079
15.008	3107
15.016	3095
15.024	3049.99999999999
15.032	2977
15.04	2882.99999999998
15.048	2775
15.056	2658.99999999997
15.064	2540
15.072	2422.99999999997
15.08	2313
15.088	2210.99999999998
15.096	2121
15.104	2044.99999999999
15.112	1985
15.12	1939.99999999999
15.128	1908
15.136	1889
15.144	1880
15.152	1876
15.16	1876
15.168	1880
15.176	1885
15.184	1890
15.192	1892
15.2	1889
15.208	1883
15.216	1874
15.224	1860
15.232	1843
15.24	1827
15.248	1810
15.256	1789
15.264	1768
15.272	1745
15.28	1720.99999999999
15.288	1696
15.296	1669.99999999999
15.304	1645
15.312	1619.99999999999
15.32	1595
15.328	1571.99999999999
15.336	1547
15.344	1521.99999999999
15.352	1498
15.36	1481
15.368	1480
15.376	1503
15.384	1560
15.392	1654
15.4	1788
15.408	1957
15.416	2151
15.424	2354
15.432	2548
15.44	2719
15.448	2855
15.456	2948
15.464	2995
15.472	2999
15.48	2966
15.488	2902
15.496	2813
15.504	2707
15.512	2590
15.52	2467
15.528	2343
15.536	2221
15.544	2107
15.552	2006
15.56	1919
15.568	1847
15.576	1789
15.584	1745
15.592	1715
15.6	1698
15.608	1689
15.616	1687
15.624	1688
15.632	1688
15.64	1688
15.648	1688
15.656	1686
15.664	1681
15.672	1672
15.68	1657
15.688	1641
15.696	1623
15.704	1602
15.712	1580
15.72	1558
15.728	1536
15.736	1513
15.744	1489
15.752	1466
15.76	1443
15.768	1420
15.776	1397
15.784	1375
15.792	1353
15.8	1333
15.808	1314
15.816	1296
15.824	1283
15.832	1281
15.84	1297
15.848	1338
15.856	1409
15.864	1512
15.872	1646
15.88	1808
15.888	1986
15.896	2166
15.904	2334
15.912	2477
15.92	2587
15.928	2658
15.936	2689
15.944	2684
15.952	2645
15.96	2580
15.968	2494
15.976	2393
15.984	2284
15.992	2172
16	2063
16.008	1961
16.016	1866.99999999996
16.024	1785
16.032	1717
16.04	1662
16.048	1618.99999999998
16.056	1590
16.064	1572
16.072	1563
16.08	1562
16.088	1565
16.096	1572
16.104	1580
16.112	1587
16.12	1593
16.128	1596
16.136	1594
16.144	1587
16.152	1578
16.16	1566
16.168	1551
16.176	1534.99999999999
16.184	1517
16.192	1498
16.2	1479
16.208	1461.99999999999
16.216	1445
16.224	1428
16.232	1409
16.24	1390.99999999999
16.248	1372
16.256	1352
16.264	1334
16.272	1316.99999999999
16.28	1301
16.288	1288
16.296	1283
16.304	1293.00000000001
16.312	1325
16.32	1386
16.328	1478
16.336	1602.00000000006
16.344	1753
16.352	1922
16.36	2096
16.368	2263.00000000007
16.376	2412
16.384	2532
16.392	2618
16.4	2667
16.408	2678
16.416	2653
16.424	2599
16.432	2520
16.44	2423
16.448	2316
16.456	2204
16.464	2092
16.472	1985
16.48	1889
16.488	1805
16.496	1734
16.504	1675
16.512	1629
16.52	1597
16.528	1578
16.536	1569
16.544	1568
16.552	1571
16.56	1580
16.568	1592
16.576	1605
16.584	1615
16.592	1621
16.6	1625
16.608	1626
16.616	1622
16.624	1613
16.632	1600
16.64	1584
16.648	1567
16.656	1548
16.664	1527
16.672	1505
16.68	1482
16.688	1460
16.696	1439
16.704	1419
16.712	1400
16.72	1382
16.728	1364
16.736	1346
16.744	1331
16.752	1322
16.76	1321
16.768	1337
16.776	1376
16.784	1443
16.792	1545
16.8	1681
16.808	1844
16.816	2024
16.824	2210
16.832	2350
16.84	2449
16.848	2547
16.856	2622
16.864	2662
16.872	2667
16.88	2639
16.888	2582
16.896	2500
16.904	2400
16.912	2291
16.92	2179
16.928	2066
16.936	1956
16.944	1855
16.952	1765
16.96	1688
16.968	1625
16.976	1577
16.984	1544
16.992	1524
17	1516
17.008	1516
17.016	1520
17.024	1528
17.032	1539
17.04	1551
17.048	1561
17.056	1568
17.064	1571
17.072	1571
17.08	1567
17.088	1559
17.096	1548
17.104	1535
17.112	1520.99999999999
17.12	1504
17.128	1485
17.136	1465
17.144	1443.99999999999
17.152	1423
17.16	1403
17.168	1383
17.176	1364.99999999999
17.184	1347
17.192	1327
17.2	1307
17.208	1288.99999999999
17.216	1277
17.224	1277
17.232	1297
17.24	1345.00000000003
17.248	1490
17.256	1631
17.264	1803
17.272	2199.00000000012
17.28	2393
17.288	2565
17.296	2810
17.304	2872.00000000001
17.312	2892
17.32	2860
17.328	2798
17.336	2714.99999999996
17.344	2617
17.352	2510
17.36	2398
17.368	2284.99999999995
17.376	2176
17.384	2030
17.392	1947
17.4	1877.99999999997
17.408	1799
17.416	1765
17.424	1745
17.432	1738
17.44	1740
17.448	1747
17.456	1756
17.464	1763
17.472	1769
17.48	1773
17.488	1774
17.496	1772
17.504	1767
17.512	1758
17.52	1746
17.528	1732
17.536	1715
17.544	1696
17.552	1673
17.56	1649
17.568	1624
17.576	1597
17.584	1570
17.592	1544
17.6	1520
17.608	1497
17.616	1476
17.624	1455
17.632	1434
17.64	1413
17.648	1398
17.656	1393
17.664	1407
17.672	1448
17.68	1524
17.688	1640
17.696	1793
17.704	1976
17.712	2176
17.72	2379
17.728	2569
17.736	2731
17.744	2856
17.752	2939
17.76	2980
17.768	2980
17.776	2945
17.784	2882
17.792	2797
17.8	2697
17.808	2587
17.816	2473
17.824	2359
17.832	2248
17.84	2143
17.848	2048
17.856	1964
17.864	1892
17.872	1833
17.88	1789
17.888	1758
17.896	1738
17.904	1728
17.912	1725
17.92	1727
17.928	1731
17.936	1733
17.944	1732
17.952	1728
17.96	1721
17.968	1710
17.976	1693
17.984	1672
17.992	1648
18	1623
18.008	1595
18.016	1564.99999999999
18.024	1535
18.032	1504
18.04	1473
18.048	1443.99999999999
18.056	1415
18.064	1387
18.072	1361
18.08	1335.99999999999
18.088	1310
18.096	1285
18.104	1261
18.112	1236.99999999999
18.12	1217
18.128	1208
18.136	1217
18.144	1252.00000000002
18.152	1317
18.16	1420
18.168	1557
18.176	1721.00000000008
18.184	1903
18.192	2088
18.2	2261
18.208	2412.00000000006
18.216	2531
18.224	2612
18.232	2652
18.24	2654
18.248	2622
18.256	2563
18.264	2482
18.272	2384.99999999996
18.28	2280
18.288	2169
18.296	2058
18.304	1949.99999999995
18.312	1850
18.32	1760
18.328	1682
18.336	1616.99999999997
18.344	1566
18.352	1528
18.36	1502
18.368	1488
18.376	1483
18.384	1485
18.392	1492
18.4	1501
18.408	1511
18.416	1518
18.424	1521
18.432	1521
18.44	1517
18.448	1509
18.456	1497
18.464	1481
18.472	1462
18.48	1441
18.488	1419
18.496	1396
18.504	1373
18.512	1350
18.52	1325
18.528	1301
18.536	1278
18.544	1255
18.552	1232
18.56	1209
18.568	1189
18.576	1171
18.584	1155
18.592	1143
18.6	1140
18.608	1150
18.616	1182
18.624	1242
18.632	1332
18.64	1453
18.648	1600
18.656	1764
18.664	1936
18.672	2103
18.68	2253
18.688	2376
18.696	2465
18.704	2519
18.712	2536
18.72	2518
18.728	2472
18.736	2403
18.744	2316
18.752	2216
18.76	2112
18.768	2008
18.776	1906
18.784	1810
18.792	1723
18.8	1647
18.808	1583
18.816	1531
18.824	1490
18.832	1461
18.84	1445
18.848	1429
18.856	1416
18.864	1416
18.872	1424
18.88	1435
18.888	1447
18.896	1458
18.904	1466
18.912	1471
18.92	1472
18.928	1467
18.936	1458
18.944	1443
18.952	1424
18.96	1403
18.968	1382
18.976	1359
18.984	1336
18.992	1312
19	1289
19.008	1268
19.016	1245.99999999999
19.024	1224
19.032	1203
19.04	1183
19.048	1163.99999999999
19.056	1147
19.064	1135
19.072	1132
19.08	1145.00000000001
19.088	1182
19.096	1248
19.104	1346
19.112	1476.00000000006
19.12	1633
19.128	1807
19.136	1986
19.144	2157.00000000007
19.152	2310
19.16	2433
19.168	2522
19.176	2574.00000000001
19.184	2589
19.192	2570
19.2	2522
19.208	2451.99999999997
19.216	2365
19.224	2268
19.232	2165
19.24	2061.99999999995
19.248	1961
19.256	1866
19.264	1779
19.272	1702.99999999997
19.28	1638
19.288	1583
19.296	1540
19.304	1508.99999999999
19.312	1490
19.32	1480
19.328	1478
19.336	1482
19.344	1489
19.352	1498
19.36	1507
19.368	1516
19.376	1522
19.384	1524
19.392	1522
19.4	1516
19.408	1507
19.416	1496
19.424	1481
19.432	1463.99999999999
19.44	1444
19.448	1422
19.456	1399
19.464	1377
19.472	1355
19.48	1333
19.488	1312
19.496	1292
19.504	1272
19.512	1252
19.52	1234
19.528	1220
19.536	1214
19.544	1222
19.552	1252
19.56	1312
19.568	1407
19.576	1537
19.584	1697
19.592	1879
19.6	2072
19.608	2261
19.616	2434
19.624	2580
19.632	2692
19.64	2766
19.648	2801
19.656	2800
19.664	2766
19.672	2704
19.68	2621
19.688	2525
19.696	2421
19.704	2314
19.712	2208
19.72	2107
19.728	2013
19.736	1928
19.744	1854
19.752	1794
19.76	1748
19.768	1714
19.776	1691
19.784	1678
19.792	1672
19.8	1673
19.808	1680
19.816	1690
19.824	1701
19.832	1710
19.84	1716
19.848	1719
19.856	1719
19.864	1717
19.872	1712
19.88	1701
19.888	1686
19.896	1666
19.904	1642
19.912	1618
19.92	1594
19.928	1567
19.936	1539
19.944	1513
19.952	1489
19.96	1465
19.968	1441
19.976	1417
19.984	1393
19.992	1371
20	1355
20.008	1351
20.016	1366.00000000001
20.024	1408
20.032	1486
20.04	1603
20.048	1757.00000000007
20.056	1939
20.064	2136
20.072	2333
20.08	2519.00000000008
20.088	2682
20.096	2811
20.104	2902
20.112	2954.00000000001
20.12	2968
20.128	2948
20.136	2901
20.144	2829.99999999996
20.152	2739
20.16	2638
20.168	2530
20.176	2419.99999999995
20.184	2313
20.192	2212
20.2	2118
20.208	2033.99999999997
20.216	1962
20.224	1904
20.232	1859
20.24	1826.99999999999
20.248	1807
20.256	1796
20.264	1791
20.272	1792
20.28	1795
20.288	1798
20.296	1800
20.304	1801
20.312	1800
20.32	1795
20.328	1786
20.336	1771.99999999999
20.344	1753
20.352	1731
20.36	1705
20.368	1673.99999999999
20.376	1642
20.384	1610
20.392	1576
20.4	1541.99999999999
20.408	1510
20.416	1479
20.424	1449
20.432	1420.99999999999
20.44	1394
20.448	1365
20.456	1336
20.464	1307.99999999999
20.472	1283
20.48	1268
20.488	1270
20.496	1299
20.504	1363
20.512	1463
20.52	1598
20.528	1762
20.536	1945
20.544	2133
20.552	2312
20.56	2469
20.568	2597
20.576	2690
20.584	2744
20.592	2760
20.6	2742
20.608	2694
20.616	2621
20.624	2531
20.632	2429
20.64	2320
20.648	2209
20.656	2101
20.664	1997
20.672	1901
20.68	1815
20.688	1739
20.696	1676
20.704	1625
20.712	1586
20.72	1558
20.728	1540
20.736	1530
20.744	1526
20.752	1526
20.76	1529
20.768	1534
20.776	1537
20.784	1538
20.792	1535
20.8	1529
20.808	1519
20.816	1506
20.824	1490
20.832	1471
20.84	1449
20.848	1424
20.856	1398
20.864	1373
20.872	1348
20.88	1321
20.888	1296
20.896	1251
20.904	1195
20.912	1155
20.92	1124
20.928	1096
20.936	1070
20.944	1047
20.952	1032
20.96	1028
20.968	1042
20.976	1082
20.984	1153
20.992	1258
21	1395
21.008	1559
21.016	1738.00000000008
21.024	1919
21.032	2092
21.04	2244
21.048	2367.00000000005
21.056	2457
21.064	2511
21.072	2529
21.08	2511.99999999999
21.088	2464
21.096	2393
21.104	2306
21.112	2207.99999999995
21.12	2103
21.128	1995
21.136	1890
21.144	1790.99999999996
21.152	1700
21.16	1618
21.168	1546
21.176	1484.99999999998
21.184	1438
21.192	1402
21.2	1377
21.208	1363
21.216	1357
21.224	1358
21.232	1363
21.24	1371
21.248	1381
21.256	1390
21.264	1396
21.272	1400
21.28	1401
21.288	1399
21.296	1393
21.304	1382.99999999999
21.312	1370
21.32	1354
21.328	1334
21.336	1310.99999999999
21.344	1288
21.352	1263
21.36	1238
21.368	1212.99999999999
21.376	1190
21.384	1167
21.392	1145
21.4	1123.99999999999
21.408	1102
21.416	1080
21.424	1062
21.432	1053
21.44	1062
21.448	1096
21.456	1160
21.464	1258.00000000005
21.472	1390
21.48	1549
21.488	1726
21.496	1909.00000000008
21.504	2087
21.512	2247
21.52	2380
21.528	2480
21.536	2543
21.544	2569
21.552	2562
21.56	2526
21.568	2465
21.576	2385
21.584	2293
21.592	2193
21.6	2089
21.608	1986
21.616	1886
21.624	1792
21.632	1705
21.64	1629
21.648	1564
21.656	1509
21.664	1468
21.672	1438
21.68	1418
21.688	1408
21.696	1407
21.704	1412
21.712	1418
21.72	1425
21.728	1433
21.736	1440
21.744	1444
21.752	1444
21.76	1440
21.768	1433
21.776	1422
21.784	1407
21.792	1392
21.8	1375
21.808	1357
21.816	1336
21.824	1313
21.832	1292
21.84	1270
21.848	1247
21.856	1224
21.864	1200
21.872	1178
21.88	1157
21.888	1137
21.896	1121
21.904	1115
21.912	1127
21.92	1166
21.928	1238
21.936	1347
21.944	1493
21.952	1667
21.96	1860
21.968	2059
21.976	2251
21.984	2423
21.992	2565
22	2673
22.008	2745
22.016	2780
22.024	2778
22.032	2744
22.04	2685
22.048	2606.99999999996
22.056	2515
22.064	2414
22.072	2309
22.08	2204.99999999995
22.088	2102
22.096	2004
22.104	1916
22.112	1837.99999999997
22.12	1769
22.128	1712
22.136	1668
22.144	1636.99999999999
22.152	1618
22.16	1608
22.168	1606
22.176	1610
22.184	1618
22.192	1628
22.2	1637
22.208	1644
22.216	1647
22.224	1646
22.232	1640
22.24	1629.99999999999
22.248	1616
22.256	1598
22.264	1577
22.272	1555.99999999999
22.28	1535
22.288	1513
22.296	1489
22.304	1464.99999999999
22.312	1443
22.32	1422
22.328	1400
22.336	1377.99999999999
22.344	1355
22.352	1331
22.36	1308
22.368	1293
22.376	1293
22.384	1316
22.392	1371
22.4	1464.00000000005
22.408	1595
22.416	1761
22.424	1952
22.432	2154.00000000009
22.44	2354
22.448	2540
22.456	2701
22.464	2830.00000000005
22.472	2923
22.48	2978
22.488	2993
22.496	2974.99999999999
22.504	2928
22.512	2855
22.52	2764
22.528	2659
22.536	2548
22.544	2436
22.552	2327
22.56	2223
22.568	2125
22.576	2036
22.584	1956
22.592	1888
22.6	1833
22.608	1791
22.616	1761
22.624	1742
22.632	1731
22.64	1728
22.648	1730
22.656	1734
22.664	1738
22.672	1741
22.68	1742
22.688	1739
22.696	1733
22.704	1723
22.712	1708
22.72	1689
22.728	1669
22.736	1646
22.744	1619
22.752	1590
22.76	1560
22.768	1530
22.776	1500
22.784	1471
22.792	1443
22.8	1416
22.808	1389
22.816	1362
22.824	1332
22.832	1303
22.84	1282
22.848	1274
22.856	1289
22.864	1336
22.872	1419
22.88	1541
22.888	1698
22.896	1883
22.904	2084
22.912	2284
22.92	2471
22.928	2634
22.936	2764
22.944	2866
22.952	2934
22.96	2957
22.968	2940
22.976	2889
22.984	2814
22.992	2720
23	2614
23.008	2501
23.016	2385.99999999995
23.024	2272
23.032	2162
23.04	2059
23.048	1966.99999999996
23.056	1885
23.064	1814
23.072	1756
23.08	1709.99999999998
23.088	1675
23.096	1652
23.104	1637
23.112	1629
23.12	1626
23.128	1625
23.136	1625
23.144	1624
23.152	1620
23.16	1613
23.168	1602
23.176	1585.99999999999
23.184	1568
23.192	1548
23.2	1526
23.208	1501.99999999999
23.216	1475
23.224	1447
23.232	1419
23.24	1389.99999999999
23.248	1359
23.256	1330
23.264	1304
23.272	1278.99999999999
23.28	1254
23.288	1229
23.296	1205
23.304	1182.99999999999
23.312	1165
23.32	1155
23.328	1158
23.336	1180.00000000001
23.344	1231
23.352	1316
23.36	1433
23.368	1580.00000000007
23.376	1750
23.384	1932
23.392	2114
23.4	2285.00000000007
23.408	2435
23.416	2556
23.424	2642
23.432	2693.00000000001
23.44	2711
23.448	2696
23.456	2650
23.464	2580.99999999997
23.472	2495
23.48	2397
23.488	2292
23.496	2183.99999999995
23.504	2079
23.512	1979
23.52	1885
23.528	1799.99999999996
23.536	1724
23.544	1657
23.552	1603
23.56	1560
23.568	1526
23.576	1503
23.584	1489
23.592	1481
23.6	1478
23.608	1479
23.616	1483
23.624	1488
23.632	1492
23.64	1494
23.648	1493
23.656	1489
23.664	1481
23.672	1467
23.68	1450
23.688	1432
23.696	1411
23.704	1389
23.712	1367
23.72	1343
23.728	1318
23.736	1294
23.744	1271
23.752	1248
23.76	1225
23.768	1203
23.776	1182
23.784	1164
23.792	1152
23.8	1150
23.808	1163
23.816	1198
23.824	1259
23.832	1350
23.84	1470
23.848	1615
23.856	1778
23.864	1949
23.872	2118
23.88	2274
23.888	2409
23.896	2516
23.904	2590
23.912	2631
23.92	2639
23.928	2616
23.936	2568
23.944	2500
23.952	2417
23.96	2326
23.968	2229
23.976	2131
23.984	2035
23.992	1942
24	1854
24.008	1775
24.016	1704.99999999997
24.024	1644
24.032	1594
24.04	1554
24.048	1523.99999999999
24.056	1505
24.064	1495
24.072	1491
24.08	1492
24.088	1495
24.096	1499
24.104	1503
24.112	1506
24.12	1507
24.128	1506
24.136	1501
24.144	1494
24.152	1483
24.16	1469
24.168	1453
24.176	1435.99999999999
24.184	1417
24.192	1397
24.2	1375
24.208	1352.99999999999
24.216	1331
24.224	1309
24.232	1288
24.24	1264.99999999999
24.248	1242
24.256	1221
24.264	1206
24.272	1200
24.28	1209
24.288	1242
24.296	1306
24.304	1404.00000000005
24.312	1534
24.32	1693
24.328	1872
24.336	2059.00000000008
24.344	2244
24.352	2413
24.36	2558
24.368	2671.00000000004
24.376	2752
24.384	2798
24.392	2808
24.4	2785.99999999999
24.408	2738
24.416	2668
24.424	2581
24.432	2482.99999999995
24.44	2378
24.448	2270
24.456	2164
24.464	2063.99999999996
24.472	1971
24.48	1887
24.488	1813
24.496	1750.99999999998
24.504	1702
24.512	1664
24.52	1638
24.528	1623
24.536	1617
24.544	1618
24.552	1623
24.56	1631
24.568	1640
24.576	1649
24.584	1657
24.592	1661
24.6	1660
24.608	1654
24.616	1646
24.624	1636
24.632	1624
24.64	1608
24.648	1589
24.656	1571
24.664	1553
24.672	1532
24.68	1509
24.688	1486
24.696	1462
24.704	1440
24.712	1419
24.72	1399
24.728	1381
24.736	1371
24.744	1376
24.752	1402
24.76	1456
24.768	1543
24.776	1664
24.784	1817
24.792	1997
24.8	2190
24.808	2385
24.816	2573
24.824	2740
24.832	2877
24.84	2982
24.848	3050
24.856	3080
24.864	3075
24.872	3040
24.88	2979
24.888	2898
24.896	2801
24.904	2696
24.912	2585
24.92	2475
24.928	2369
24.936	2269
24.944	2177
24.952	2094
24.96	2021
24.968	1960
24.976	1911
24.984	1874
24.992	1823
25	1770
25.008	1741
25.016	1727
25.024	1721
25.032	1719
25.04	1718
25.048	1717
25.056	1716
25.064	1712
25.072	1705
25.08	1694.99999999999
25.088	1681
25.096	1662
25.104	1638
25.112	1611.99999999999
25.12	1585
25.128	1558
25.136	1529
25.144	1500.99999999999
25.152	1475
25.16	1451
25.168	1428
25.176	1403.99999999999
25.184	1378
25.192	1352
25.2	1330
25.208	1315
25.216	1316
25.224	1340
25.232	1396
25.24	1490.00000000005
25.248	1621
25.256	1785
25.264	1973
25.272	2174.00000000009
25.28	2375
25.288	2564
25.296	2728
25.304	2860.00000000005
25.312	2957
25.32	3018
25.328	3041
25.336	3028.99999999999
25.344	2986
25.352	2917
25.36	2828
25.368	2723.99999999995
25.376	2611
25.384	2493
25.392	2375
25.4	2260.99999999995
25.408	2153
25.416	2053
25.424	1964
25.432	1886.99999999997
25.44	1821
25.448	1767
25.456	1724
25.464	1689.99999999999
25.472	1666
25.48	1649
25.488	1638
25.496	1631
25.504	1626
25.512	1620
25.52	1613
25.528	1604
25.536	1592
25.544	1578
25.552	1561
25.56	1540.99999999999
25.568	1518
25.576	1494
25.584	1470
25.592	1443.99999999999
25.6	1416
25.608	1387
25.616	1360
25.624	1333
25.632	1308
25.64	1284
25.648	1260
25.656	1235
25.664	1212
25.672	1190
25.68	1171
25.688	1161
25.696	1166
25.704	1193
25.712	1250
25.72	1341
25.728	1466
25.736	1620
25.744	1796
25.752	1983
25.76	2169
25.768	2341
25.776	2491
25.784	2611
25.792	2696
25.8	2745
25.808	2760
25.816	2740
25.824	2691
25.832	2620
25.84	2531
25.848	2431
25.856	2323
25.864	2211
25.872	2099
25.88	1992
25.888	1892
25.896	1801
25.904	1722
25.912	1655
25.92	1600
25.928	1556
25.936	1523
25.944	1500
25.952	1484
25.96	1474
25.968	1469
25.976	1467
25.984	1467
25.992	1467
26	1465
26.008	1462
26.016	1456
26.024	1447
26.032	1436
26.04	1421
26.048	1403.99999999999
26.056	1384
26.064	1363
26.072	1341
26.08	1316.99999999999
26.088	1293
26.096	1269
26.104	1245
26.112	1221.99999999999
26.12	1200
26.128	1181
26.136	1165
26.144	1148.99999999999
26.152	1135
26.16	1127
26.168	1130
26.176	1149.00000000001
26.184	1192
26.192	1262
26.2	1360
26.208	1486.00000000006
26.216	1635
26.224	1797
26.232	1963
26.24	2124.00000000007
26.248	2271
26.256	2397
26.264	2494
26.272	2559.00000000002
26.28	2592
26.288	2593
26.296	2565
26.304	2509.99999999997
26.312	2434
26.32	2345
26.328	2247
26.336	2143.99999999995
26.344	2041
26.352	1942
26.36	1847
26.368	1758.99999999996
26.376	1681
26.384	1614
26.392	1556
26.4	1509.99999999998
26.408	1475
26.416	1450
26.424	1434
26.432	1425
26.44	1422
26.448	1423
26.456	1428
26.464	1434
26.472	1441
26.48	1448
26.488	1452
26.496	1453
26.504	1450
26.512	1443
26.52	1434
26.528	1419.99999999999
26.536	1402
26.544	1380
26.552	1357
26.56	1333.99999999999
26.568	1309
26.576	1285
26.584	1262
26.592	1238.99999999999
26.6	1217
26.608	1196
26.616	1177
26.624	1163
26.632	1156
26.64	1161
26.648	1185
26.656	1233
26.664	1311
26.672	1420
26.68	1557
26.688	1719
26.696	1895
26.704	2074
26.712	2245
26.72	2400
26.728	2529
26.736	2627
26.744	2690
26.752	2718
26.76	2713
26.768	2679
26.776	2621
26.784	2542
26.792	2448
26.8	2346
26.808	2239
26.816	2132
26.824	2028
26.832	1929
26.84	1837
26.848	1753
26.856	1679
26.864	1618
26.872	1569
26.88	1532
26.888	1506
26.896	1490
26.904	1482
26.912	1480
26.92	1481
26.928	1484
26.936	1488
26.944	1492
26.952	1494
26.96	1493
26.968	1490
26.976	1484
26.984	1475
26.992	1463
27	1448
27.008	1432
27.016	1412.99999999999
27.024	1392
27.032	1370
27.04	1328
27.048	1276.99999999998
27.056	1243
27.064	1217
27.072	1194
27.08	1172.99999999999
27.088	1157
27.096	1147
27.104	1148
27.112	1169.00000000001
27.12	1218
27.128	1299
27.136	1418
27.144	1570.00000000007
27.152	1748
27.16	1945
27.168	2150
27.176	2348.00000000008
27.184	2530
27.192	2686
27.2	2809
27.208	2894.00000000003
27.216	2939
27.224	2949
27.232	2924
27.24	2867.99999999997
27.248	2789
27.256	2692
27.264	2581
27.272	2463.99999999995
27.28	2346
27.288	2231
27.296	2121
27.304	2018.99999999996
27.312	1928
27.32	1849
27.328	1783
27.336	1729.99999999998
27.344	1690
27.352	1663
27.36	1647
27.368	1639
27.376	1636
27.384	1635
27.392	1636
27.4	1636
27.408	1635
27.416	1632
27.424	1625
27.432	1614.99999999999
27.44	1601
27.448	1583
27.456	1563
27.464	1540.99999999999
27.472	1517
27.48	1493
27.488	1469
27.496	1443.99999999999
27.504	1418
27.512	1394
27.52	1371
27.528	1346.99999999999
27.536	1321
27.544	1294
27.552	1269
27.56	1252
27.568	1244
27.576	1252
27.584	1319
27.592	1403.00000000004
27.6	1523
27.608	1864
27.616	2067
27.624	2275.00000000012
27.632	2651
27.64	2799
27.648	2912
27.656	3024
27.664	3024
27.672	2990
27.68	2892
27.688	2799
27.696	2692
27.704	2574
27.712	2452
27.72	2330
27.728	2212
27.736	2102
27.744	2001
27.752	1912
27.76	1836
27.768	1773
27.776	1724
27.784	1688
27.792	1663
27.8	1647
27.808	1638
27.816	1632
27.824	1628
27.832	1623
27.84	1617
27.848	1610
27.856	1599
27.864	1586
27.872	1569
27.88	1551
27.888	1532
27.896	1509
27.904	1483
27.912	1453
27.92	1421
27.928	1389
27.936	1357
27.944	1325
27.952	1293
27.96	1262
27.968	1232
27.976	1203
27.984	1176
27.992	1150
28	1129
28.008	1119
28.016	1125
28.024	1158
28.032	1224
28.04	1325
28.048	1461.00000000007
28.056	1626
28.064	1812
28.072	2008
28.08	2202.00000000008
28.088	2381
28.096	2535
28.104	2657
28.112	2740.00000000003
28.12	2783
28.128	2792
28.136	2766
28.144	2709.99999999997
28.152	2632
28.16	2535
28.168	2424
28.176	2304.99999999995
28.184	2184
28.192	2064
28.2	1950
28.208	1843.99999999996
28.216	1748
28.224	1664
28.232	1594
28.24	1538.99999999998
28.248	1498
28.256	1468
28.264	1448
28.272	1436
28.28	1430
28.288	1427
28.296	1426
28.304	1425
28.312	1425
28.32	1422
28.328	1415
28.336	1407
28.344	1397
28.352	1386
28.36	1372
28.368	1355.99999999999
28.376	1339
28.384	1320
28.392	1298
28.4	1274.99999999999
28.408	1252
28.416	1228
28.424	1205
28.432	1182.99999999999
28.44	1160
28.448	1137
28.456	1116
28.464	1096.99999999999
28.472	1083
28.48	1077
28.488	1085
28.496	1112.00000000002
28.504	1162
28.512	1240
28.52	1348
28.528	1483.00000000006
28.536	1639
28.544	1807
28.552	1978
28.56	2140.00000000007
28.568	2285
28.576	2406
28.584	2494
28.592	2548.00000000001
28.6	2568
28.608	2554
28.616	2510
28.624	2439.99999999996
28.632	2351
28.64	2250
28.648	2141
28.656	2029.99999999995
28.664	1920
28.672	1816
28.68	1719
28.688	1635
28.696	1564
28.704	1502
28.712	1451
28.72	1413
28.728	1386
28.736	1369
28.744	1363
28.752	1364
28.76	1369
28.768	1376
28.776	1383
28.784	1390
28.792	1393
28.8	1394
28.808	1390
28.816	1384
28.824	1377
28.832	1367
28.84	1353
28.848	1335
28.856	1314
28.864	1290
28.872	1266
28.88	1243
28.888	1220
28.896	1195
28.904	1171
28.912	1147
28.92	1123
28.928	1104
28.936	1091
28.944	1087
28.952	1096
28.96	1122
28.968	1171
28.976	1247
28.984	1351
28.992	1481
29	1632
29.008	1799
29.016	1974.00000000008
29.024	2144
29.032	2298
29.04	2428
29.048	2529.00000000003
29.056	2584
29.064	2596
29.072	2582
29.08	2540.99999999998
29.088	2476
29.096	2390
29.104	2290
29.112	2181.99999999995
29.12	2072
29.128	1964
29.136	1860
29.144	1763.99999999996
29.152	1679
29.16	1606
29.168	1544
29.176	1493.99999999998
29.184	1456
29.192	1430
29.2	1414
29.208	1406
29.216	1404
29.224	1406
29.232	1411
29.24	1418
29.248	1423
29.256	1426
29.264	1425
29.272	1421
29.28	1414
29.288	1404
29.296	1391
29.304	1375.99999999999
29.312	1359
29.32	1341
29.328	1321
29.336	1299.99999999999
29.344	1279
29.352	1258
29.36	1237
29.368	1216.99999999999
29.376	1197
29.384	1178
29.392	1160
29.4	1147
29.408	1142
29.416	1150
29.424	1179
29.432	1234.00000000003
29.44	1319
29.448	1439
29.456	1588
29.464	1758.00000000008
29.472	1942
29.48	2129
29.488	2310
29.496	2472.00000000007
29.504	2606
29.512	2707
29.52	2772
29.528	2799
29.536	2790
29.544	2748
29.552	2679
29.56	2589.99999999996
29.568	2487
29.576	2376
29.584	2260
29.592	2145.99999999995
29.6	2039
29.608	1940
29.616	1851
29.624	1773.99999999997
29.632	1708
29.64	1657
29.648	1620
29.656	1593.99999999999
29.664	1579
29.672	1573
29.68	1573
29.688	1578
29.696	1585
29.704	1592
29.712	1596
29.72	1597
29.728	1596
29.736	1590
29.744	1579
29.752	1566
29.76	1550
29.768	1532
29.776	1513
29.784	1492
29.792	1469
29.8	1446
29.808	1422
29.816	1398
29.824	1373
29.832	1349
29.84	1325
29.848	1302
29.856	1282
29.864	1269
29.872	1268
29.88	1285
29.888	1329
29.896	1405
29.904	1514
29.912	1655
29.92	1827
29.928	2019
29.936	2218
29.944	2411
29.952	2588
29.96	2737
29.968	2854
29.976	2932
29.984	2971
29.992	2975
30	2944
30.008	2882
30.016	2795.99999999996
30.024	2693
30.032	2579
30.04	2458
30.048	2334.99999999995
30.056	2216
30.064	2103
30.072	2001
30.08	1912.99999999996
30.088	1840
30.096	1781
30.104	1737
30.112	1704.99999999999
30.12	1684
30.128	1672
30.136	1667
30.144	1666
30.152	1665
30.16	1664
30.168	1662
30.176	1660
30.184	1656
30.192	1649
30.2	1638
30.208	1621.99999999999
30.216	1602
30.224	1579
30.232	1555
30.24	1530.99999999999
30.248	1507
30.256	1481
30.264	1454
30.272	1427.99999999999
30.28	1403
30.288	1379
30.296	1355
30.304	1327.99999999999
30.312	1299
30.32	1273
30.328	1253
30.336	1244
30.344	1252
30.352	1286
30.36	1354
30.368	1458.00000000005
30.376	1596
30.384	1764
30.392	1952
30.4	2147.00000000009
30.408	2336
30.416	2506
30.424	2649
30.432	2758.00000000004
30.44	2829
30.448	2862
30.456	2856
30.464	2816.99999999998
30.472	2750
30.48	2658
30.488	2548
30.496	2425.99999999994
30.504	2299
30.512	2172
30.52	2049
30.528	1934.99999999995
30.536	1832
30.544	1743
30.552	1668
30.56	1605.99999999998
30.568	1559
30.576	1526
30.584	1502
30.592	1485.99999999999
30.6	1477
30.608	1473
30.616	1472
30.624	1472
30.632	1471
30.64	1468
30.648	1462
30.656	1453
30.664	1440
30.672	1423
30.68	1405
30.688	1385.99999999999
30.696	1365
30.704	1343
30.712	1320
30.72	1296
30.728	1272
30.736	1249
30.744	1226
30.752	1202
30.76	1178
30.768	1154
30.776	1132
30.784	1112
30.792	1096
30.8	1088
30.808	1094
30.816	1118
30.824	1165
30.832	1241
30.84	1346
30.848	1477
30.856	1630
30.864	1797
30.872	1968
30.88	2130
30.888	2275
30.896	2394
30.904	2480
30.912	2530
30.92	2542
30.928	2519
30.936	2466
30.944	2389
30.952	2295
30.96	2189
30.968	2078
30.976	1965
30.984	1855
30.992	1750
31	1653
31.008	1569
31.016	1496.99999999997
31.024	1438
31.032	1392
31.04	1359
31.048	1338.99999999999
31.056	1328
31.064	1323
31.072	1324
31.08	1328
31.088	1334
31.096	1340
31.104	1359
31.112	1384.00000000001
31.12	1395
31.128	1399
31.136	1397
31.144	1390
31.152	1379
31.16	1364
31.168	1345
31.176	1325.99999999999
31.184	1306
31.192	1286
31.2	1266
31.208	1244.99999999999
31.216	1224
31.224	1203
31.232	1183
31.24	1163.99999999999
31.248	1147
31.256	1136
31.264	1132
31.272	1140.00000000001
31.28	1165
31.288	1211
31.296	1283
31.304	1382.00000000005
31.312	1503
31.32	1643
31.328	1795
31.336	1950.00000000007
31.344	2097
31.352	2228
31.36	2334
31.368	2410.00000000002
31.376	2453
31.384	2462
31.392	2439
31.4	2388.99999999997
31.408	2316
31.416	2226
31.424	2125
31.432	2017.99999999995
31.44	1909
31.448	1806
31.456	1711
31.464	1626.99999999997
31.472	1554
31.48	1494
31.488	1448
31.496	1414.99999999999
31.504	1394
31.512	1382
31.52	1378
31.528	1380
31.536	1386
31.544	1393
31.552	1401
31.56	1409
31.568	1415
31.576	1418
31.584	1418
31.592	1414
31.6	1406
31.608	1395
31.616	1381
31.624	1361.99999999999
31.632	1341
31.64	1321
31.648	1300
31.656	1277.99999999999
31.664	1256
31.672	1234
31.68	1213
31.688	1194.99999999999
31.696	1178
31.704	1163
31.712	1154
31.72	1153
31.728	1165
31.736	1194
31.744	1245
31.752	1323
31.76	1429
31.768	1560
31.776	1711
31.784	1876
31.792	2044
31.8	2207
31.808	2354
31.816	2474
31.824	2563
31.832	2619
31.84	2640
31.848	2625
31.856	2579
31.864	2507
31.872	2414
31.88	2306
31.888	2192
31.896	2078
31.904	1967
31.912	1863
31.92	1770
31.928	1689
31.936	1623
31.944	1572
31.952	1533
31.96	1507
31.968	1492
31.976	1485
31.984	1485
31.992	1489
32	1495
32.008	1502
32.016	1509
32.024	1516
32.032	1520
32.04	1521
32.048	1519
32.056	1513
32.064	1502
32.072	1486
32.08	1468
32.088	1449
32.096	1428.99999999998
32.104	1408
32.112	1387
32.12	1366
32.128	1345
32.136	1328
32.144	1312
32.152	1297
32.16	1284.99999999999
32.168	1276
32.176	1274
32.184	1286
32.192	1318
32.2	1376
32.208	1463
32.216	1582
32.224	1730.00000000014
32.232	1901
32.24	2086
32.248	2271
32.256	2445
32.264	2598
32.272	2721
32.28	2810
32.288	2862.00000000002
32.296	2878
32.304	2860
32.312	2810
32.32	2733
32.328	2636
32.336	2523
32.344	2402
32.352	2278.99999999989
32.36	2161
32.368	2051
32.376	1953
32.384	1870
32.392	1801
32.4	1748
32.408	1708
32.416	1679.99999999998
32.424	1662
32.432	1652
32.44	1649
32.448	1650
32.456	1652
32.464	1655
32.472	1657
32.48	1656
32.488	1652
32.496	1645
32.504	1635
32.512	1621
32.52	1604
32.528	1585
32.536	1565
32.544	1542.99999999998
32.552	1519
32.56	1493
32.568	1468
32.576	1444
32.584	1421
32.592	1400
32.6	1379
32.608	1357.99999999998
32.616	1337
32.624	1321
32.632	1313
32.64	1317
32.648	1341
32.656	1392
32.664	1473
32.672	1589.00000000012
32.68	1737
32.688	1910
32.696	2097
32.704	2287
32.712	2466
32.72	2622
32.728	2747
32.736	2836.00000000006
32.744	2886
32.752	2898
32.76	2875
32.768	2820
32.776	2737
32.784	2635
32.792	2518
32.8	2392
32.808	2265
32.816	2142
32.824	2024
32.832	1917
32.84	1825
32.848	1747
32.856	1684
32.864	1635
32.872	1600
32.88	1576
32.888	1562
32.896	1554
32.904	1549
32.912	1545
32.92	1540
32.928	1533
32.936	1524
32.944	1512
32.952	1497
32.96	1480
32.968	1462
32.976	1443
32.984	1423
32.992	1401
33	1376
33.008	1350
33.016	1324
33.024	1297
33.032	1270.99999999998
33.04	1245
33.048	1219
33.056	1194
33.064	1169
33.072	1146
33.08	1124
33.088	1105
33.096	1093
33.104	1093
33.112	1113
33.12	1158
33.128	1233
33.136	1341
33.144	1476
33.152	1643
33.16	1829.00000000016
33.168	2008
33.176	2172
33.184	2312
33.192	2422
33.2	2498
33.208	2538
33.216	2543
33.224	2514.99999999997
33.232	2456
33.24	2371
33.248	2269
33.256	2157
33.264	2041
33.272	1925
33.28	1813
33.288	1708.99999999991
33.296	1618
33.304	1540
33.312	1474
33.32	1422
33.328	1384
33.336	1356
33.344	1337
33.352	1326.99999999999
33.36	1323
33.368	1323
33.376	1325
33.384	1328
33.392	1331
33.4	1334
33.408	1333
33.416	1329
33.424	1323
33.432	1314
33.44	1300
33.448	1284
33.456	1268
33.464	1251
33.472	1232
33.48	1209.99999999998
33.488	1187
33.496	1165
33.504	1144
33.512	1123
33.52	1103
33.528	1082
33.536	1060
33.544	1041.99999999999
33.552	1031
33.56	1029
33.568	1040
33.576	1069
33.584	1121
33.592	1198
33.6	1301
33.608	1427.00000000012
33.616	1570
33.624	1723
33.632	1877
33.64	2021
33.648	2145
33.656	2241
33.664	2303
33.672	2330
33.68	2323
33.688	2284
33.696	2217
33.704	2131
33.712	2029
33.72	1917
33.728	1802
33.736	1688.9999999999
33.744	1585
33.752	1493
33.76	1414
33.768	1348
33.776	1298
33.784	1262
33.792	1238
33.8	1225
33.808	1220
33.816	1220
33.824	1225
33.832	1233
33.84	1241
33.848	1249
33.856	1255
33.864	1258
33.872	1259
33.88	1258
33.888	1253
33.896	1247
33.904	1238
33.912	1224
33.92	1206
33.928	1185
33.936	1164
33.944	1143
33.952	1124
33.96	1104
33.968	1082
33.976	1060
33.984	1040
33.992	1023
34	1010
34.008	1002
34.016	1005
34.024	1023
34.032	1059.00000000004
34.04	1120
34.048	1209
34.056	1326
34.064	1465
34.072	1621
34.08	1786
34.088	1948
34.096	2097.00000000012
34.104	2225
34.112	2323
34.12	2386
34.128	2412
34.136	2402
34.144	2359
34.152	2291
34.16	2201.99999999991
34.168	2096
34.176	1982
34.184	1866
34.192	1753
34.2	1648
34.208	1553
34.216	1473
34.224	1408.99999999995
34.232	1360
34.24	1324
34.248	1301
34.256	1289
34.264	1284
34.272	1283
34.28	1286
34.288	1290
34.296	1294
34.304	1297
34.312	1298
34.32	1296
34.328	1292
34.336	1285
34.344	1276
34.352	1263.99999999999
34.36	1251
34.368	1238
34.376	1222
34.384	1204
34.392	1185
34.4	1166
34.408	1147
34.416	1130.99999999999
34.424	1115
34.432	1098
34.44	1080
34.448	1063
34.456	1051
34.464	1046
34.472	1053
34.48	1079.00000000003
34.488	1130
34.496	1211
34.504	1324
34.512	1465
34.52	1630
34.528	1809
34.536	1991
34.544	2164.00000000014
34.552	2317
34.56	2441
34.568	2530
34.576	2581
34.584	2594
34.592	2571
34.6	2518
34.608	2438.99999999992
34.616	2340
34.624	2227
34.632	2109
34.64	1990
34.648	1876
34.656	1772
34.664	1679
34.672	1600.99999999994
34.68	1539
34.688	1491
34.696	1456
34.704	1432
34.712	1418
34.72	1413
34.728	1415
34.736	1420
34.744	1425
34.752	1430
34.76	1434
34.768	1436
34.776	1436
34.784	1434
34.792	1430
34.8	1423.99999999999
34.808	1415
34.816	1404
34.824	1390
34.832	1374
34.84	1356
34.848	1336
34.856	1314
34.864	1292
34.872	1272
34.88	1254
34.888	1236
34.896	1217
34.904	1199
34.912	1184
34.92	1177
34.928	1187
34.936	1220
34.944	1282
34.952	1379
34.96	1513
34.968	1678
34.976	1863
34.984	2057
34.992	2246
35	2418
35.008	2562
35.016	2671
35.024	2744
35.032	2777
35.04	2771
35.048	2730
35.056	2661
35.064	2571
35.072	2464
35.08	2346
35.088	2223
35.096	2100.99999999989
35.104	1986
35.112	1881
35.12	1788
35.128	1708
35.136	1644
35.144	1595
35.152	1561
35.16	1538.99999999999
35.168	1527
35.176	1523
35.184	1522
35.192	1522
35.2	1560
35.208	1616
35.216	1642
35.224	1650
35.232	1648
35.24	1641
35.248	1631
35.256	1617
35.264	1600
35.272	1580
35.28	1559
35.288	1538.99999999998
35.296	1517
35.304	1492
35.312	1466
35.32	1440
35.328	1413
35.336	1387
35.344	1360
35.352	1331.99999999998
35.36	1307
35.368	1287
35.376	1275
35.384	1277
35.392	1300
35.4	1350
35.408	1433
35.416	1551.00000000012
35.424	1700
35.432	1871
35.44	2055
35.448	2238
35.456	2404
35.464	2543
35.472	2647
35.48	2712.00000000003
35.488	2737
35.496	2726
35.504	2682
35.512	2610
35.52	2516
35.528	2407
35.536	2290
35.544	2166.99999999989
35.552	2046
35.56	1930
35.568	1822
35.576	1726
35.584	1643
35.592	1575
35.6	1522
35.608	1482.99999999997
35.616	1456
35.624	1437
35.632	1427
35.64	1422
35.648	1419
35.656	1418
35.664	1416
35.672	1413
35.68	1410
35.688	1405
35.696	1399
35.704	1391
35.712	1381
35.72	1371
35.728	1360
35.736	1345.99999999999
35.744	1330
35.752	1313
35.76	1296
35.768	1277
35.776	1256
35.784	1233
35.792	1211
35.8	1188.99999999998
35.808	1168
35.816	1149
35.824	1134
35.832	1123
35.84	1122
35.848	1133
35.856	1163
35.864	1218
35.872	1300
35.88	1411
35.888	1549
35.896	1707
35.904	1874
35.912	2037
35.92	2188
35.928	2315
35.936	2410
35.944	2468
35.952	2489
35.96	2474
35.968	2426
35.976	2352
35.984	2259
35.992	2153
36	2039
36.008	1923
36.016	1811
36.024	1707
36.032	1612.99999999992
36.04	1532
36.048	1464
36.056	1412
36.064	1375
36.072	1351
36.08	1338
36.088	1332
36.096	1332
36.104	1336
36.112	1342
36.12	1349
36.128	1356
36.136	1360
36.144	1362
36.152	1362
36.16	1360
36.168	1356
36.176	1348
36.184	1336
36.192	1322
36.2	1307
36.208	1292
36.216	1276
36.224	1257.99999999998
36.232	1238
36.24	1218
36.248	1198
36.256	1177
36.264	1157
36.272	1139
36.28	1123
36.288	1112
36.296	1110
36.304	1122
36.312	1151
36.32	1203
36.328	1283
36.336	1391
36.344	1525
36.352	1679.00000000014
36.36	1844
36.368	2008
36.376	2159
36.384	2289
36.392	2389
36.4	2453
36.408	2480
36.416	2469.99999999999
36.424	2427
36.432	2357
36.44	2267
36.448	2164
36.456	2053
36.464	1940
36.472	1829
36.48	1726.99999999991
36.488	1636
36.496	1557
36.504	1493
36.512	1444
36.52	1408
36.528	1385
36.536	1375
36.544	1374
36.552	1378
36.56	1387
36.568	1399
36.576	1410
36.584	1418
36.592	1423
36.6	1426
36.608	1426
36.616	1423
36.624	1418
36.632	1410
36.64	1399
36.648	1386
36.656	1370
36.664	1351
36.672	1329.99999999998
36.68	1308
36.688	1286
36.696	1263
36.704	1240
36.712	1218
36.72	1199
36.728	1183
36.736	1169.99999999999
36.744	1163
36.752	1167
36.76	1185
36.768	1224
36.776	1291
36.784	1390
36.792	1519
36.8	1675.00000000015
36.808	1849
36.816	2032
36.824	2210
36.832	2370
36.84	2502
36.848	2598
36.856	2655
36.864	2673
36.872	2652
36.88	2598
36.888	2517
36.896	2416
36.904	2301
36.912	2180
36.92	2060
36.928	1944
36.936	1835
36.944	1740
36.952	1660
36.96	1597
36.968	1550
36.976	1516
36.984	1495
36.992	1486
37	1485
37.008	1491
37.016	1501
37.024	1513
37.032	1525.00000000001
37.04	1534
37.048	1540
37.056	1543
37.064	1542
37.072	1538
37.08	1532
37.088	1523
37.096	1511.99999999999
37.104	1497
37.112	1479
37.12	1459
37.128	1439
37.136	1419
37.144	1399
37.152	1380
37.16	1360.99999999998
37.168	1342
37.176	1323
37.184	1307
37.192	1296
37.2	1293
37.208	1303
37.216	1333
37.224	1392.00000000006
37.232	1484
37.24	1610
37.248	1796
37.256	2025
37.264	2252
37.272	2468
37.28	2664
37.288	2829.00000000013
37.296	2954
37.304	3034
37.312	3069
37.32	3063
37.328	3020
37.336	2945
37.344	2847
37.352	2733.9999999999
37.36	2611
37.368	2484
37.376	2357
37.384	2237
37.392	2129
37.4	2033
37.408	1951
37.416	1885.99999999995
37.424	1836
37.432	1800
37.44	1777
37.448	1765
37.456	1760
37.464	1759
37.472	1762
37.48	1766
37.488	1769
37.496	1771
37.504	1770
37.512	1765
37.52	1757
37.528	1746
37.536	1733
37.544	1718.99999999999
37.552	1702
37.56	1682
37.568	1660
37.576	1637
37.584	1616
37.592	1593
37.6	1570
37.608	1546.99999999998
37.616	1524
37.624	1500
37.632	1476
37.64	1453
37.648	1433
37.656	1421
37.664	1426
37.672	1455.00000000004
37.68	1517
37.688	1618
37.696	1759
37.704	1935
37.712	2136
37.72	2349
37.728	2558
37.736	2745.00000000015
37.744	2900
37.752	3014
37.76	3097
37.768	3102
37.776	3068
37.784	2911
37.792	2799
37.8	2672.99999999985
37.808	2402
37.816	2269
37.824	2146
37.832	1985
37.84	1899
37.848	1830
37.856	1778
37.864	1739.99999999997
37.872	1713
37.88	1696
37.888	1684
37.896	1675
37.904	1669
37.912	1663
37.92	1656
37.928	1641
37.936	1629
37.944	1616
37.952	1594
37.96	1575
37.968	1554
37.976	1531
37.984	1508
37.992	1484
38	1459
38.008	1433
38.016	1406
38.024	1378
38.032	1349.99999999998
38.04	1323
38.048	1296
38.056	1268
38.064	1242
38.072	1219
38.08	1202
38.088	1194
38.096	1203.00000000001
38.104	1239
38.112	1307
38.12	1411
38.128	1551
38.136	1720
38.144	1908
38.152	2103
38.16	2291.00000000016
38.168	2457
38.176	2589
38.184	2681
38.192	2731
38.2	2740
38.208	2711
38.216	2649
38.224	2560.99999999991
38.232	2454
38.24	2332
38.248	2202
38.256	2071
38.264	1946
38.272	1832
38.28	1733
38.288	1648.99999999993
38.296	1580
38.304	1526
38.312	1486
38.32	1459
38.328	1443
38.336	1435
38.344	1435
38.352	1441.00000000001
38.36	1450
38.368	1459
38.376	1467
38.384	1472
38.392	1473
38.4	1470
38.408	1463
38.416	1453.99999999999
38.424	1441
38.432	1427
38.44	1412
38.448	1394
38.456	1375
38.464	1356
38.472	1335
38.48	1313.99999999998
38.488	1290
38.496	1266
38.504	1244
38.512	1223
38.52	1203
38.528	1184
38.536	1168
38.544	1159
38.552	1162
38.56	1182
38.568	1227
38.576	1302
38.584	1408
38.592	1544
38.6	1704
38.608	1879.00000000016
38.616	2058
38.624	2227
38.632	2375
38.64	2491
38.648	2568
38.656	2603
38.664	2599
38.672	2558.99999999995
38.68	2489
38.688	2397
38.696	2289
38.704	2172
38.712	2052
38.72	1936
38.728	1829
38.736	1733.99999999992
38.744	1651
38.752	1582
38.76	1527
38.768	1488
38.776	1462
38.784	1448
38.792	1444
38.8	1447
38.808	1456
38.816	1468
38.824	1480
38.832	1489
38.84	1495
38.848	1497
38.856	1495
38.864	1491
38.872	1485
38.88	1476
38.888	1464
38.896	1449
38.904	1432
38.912	1412
38.92	1391
38.928	1371
38.936	1350
38.944	1328
38.952	1306
38.96	1283
38.968	1262
38.976	1243
38.984	1226
38.992	1211
39	1203
39.008	1206
39.016	1225
39.024	1268
39.032	1340.00000000008
39.04	1446
39.048	1584
39.056	1748
39.064	1930
39.072	2118
39.08	2299
39.088	2459
39.096	2586.00000000009
39.104	2674
39.112	2721
39.12	2729
39.128	2699
39.136	2635
39.144	2546
39.152	2439
39.16	2320.99999999989
39.168	2198
39.176	2075
39.184	1958
39.192	1852
39.2	1760
39.208	1682
39.216	1618
39.224	1568.99999999996
39.232	1535
39.24	1514
39.248	1504
39.256	1503
39.264	1501
39.272	1498
39.28	1502
39.288	1508
39.296	1512
39.304	1514
39.312	1514
39.32	1510
39.328	1502
39.336	1492
39.344	1480
39.352	1465.99999999999
39.36	1452
39.368	1437
39.376	1421
39.384	1403
39.392	1383
39.4	1363
39.408	1344
39.416	1324.99999999998
39.424	1308
39.432	1291
39.44	1275
39.448	1262
39.456	1253
39.464	1253
39.472	1269
39.48	1309.00000000005
39.488	1378
39.496	1480
39.504	1614
39.512	1774
39.52	1953
39.528	2138
39.536	2313
39.544	2468.00000000012
39.552	2592
39.56	2679
39.568	2728
39.576	2738
39.584	2713
39.592	2660
39.6	2584
39.608	2490.99999999991
39.616	2388
39.624	2280
39.632	2171
39.64	2067
39.648	1971
39.656	1886
39.664	1813
39.672	1754.99999999996
39.68	1713
39.688	1684
39.696	1665
39.704	1657
39.712	1658
39.72	1664
39.728	1672
39.736	1680.00000000001
39.744	1688
39.752	1695
39.76	1699
39.768	1699
39.776	1696
39.784	1690
39.792	1682
39.8	1670.99999999999
39.808	1657
39.816	1641
39.824	1623
39.832	1603
39.84	1584
39.848	1565
39.856	1546
39.864	1525.99999999998
39.872	1507
39.88	1488
39.888	1468
39.896	1449
39.904	1431
39.912	1418
39.92	1414
39.928	1425.00000000001
39.936	1460
39.944	1525
39.952	1625
39.96	1758
39.968	1920
39.976	2102
39.984	2289
39.992	2467
40	2623
40.008	2748
40.016	2834
40.024	2880
40.032	2889
40.04	2865
40.048	2812
40.056	2737
40.064	2646
40.072	2543
40.08	2435
40.088	2326
40.096	2220.99999999991
40.104	2124
40.112	2035
40.12	1957
40.128	1893
40.136	1845
40.144	1810
40.152	1785
40.16	1771.99999999999
40.168	1767
40.176	1768
40.184	1771
40.192	1775
40.2	1778
40.208	1778
40.216	1775
40.224	1768.99999999999
40.232	1760
40.24	1748
40.248	1733
40.256	1714
40.264	1692
40.272	1669
40.28	1644
40.288	1616.99999999998
40.296	1591
40.304	1565
40.312	1540
40.32	1516
40.328	1492
40.336	1469
40.344	1448
40.352	1425.99999999998
40.36	1403
40.368	1382
40.376	1365
40.384	1358
40.392	1367
40.4	1400
40.408	1463
40.416	1561.0000000001
40.424	1690
40.432	1844
40.44	2013
40.448	2185
40.456	2346
40.464	2483
40.472	2589
40.48	2657.00000000004
40.488	2686
40.496	2680
40.504	2644
40.512	2581
40.52	2498
40.528	2401
40.536	2296
40.544	2185.9999999999
40.552	2077
40.56	1973
40.568	1877
40.576	1791
40.584	1716
40.592	1653
40.6	1604
40.608	1565.99999999997
40.616	1539
40.624	1523
40.632	1513
40.64	1508
40.648	1506
40.656	1505
40.664	1505
40.672	1504
40.68	1501
40.688	1497
40.696	1491
40.704	1483
40.712	1473
40.72	1461
40.728	1448
40.736	1432.99999999999
40.744	1416
40.752	1396
40.76	1375
40.768	1355
40.776	1335
40.784	1315
40.792	1295
40.8	1274.99999999998
40.808	1256
40.816	1238
40.824	1220
40.832	1202
40.84	1188
40.848	1181
40.856	1186
40.864	1207.00000000003
40.872	1253
40.88	1329
40.888	1433
40.896	1564
40.904	1714
40.912	1872
40.92	2027
40.928	2166.00000000011
40.936	2280
40.944	2364
40.952	2414
40.96	2431
40.968	2416
40.976	2372
40.984	2306
40.992	2222
41	2127
41.008	2028
41.016	1928
41.024	1831
41.032	1740.99999999993
41.04	1662
41.048	1593
41.056	1535
41.064	1491
41.072	1460
41.08	1438
41.088	1426
41.096	1423
41.104	1426
41.112	1431
41.12	1440
41.128	1449
41.136	1456
41.144	1461
41.152	1464
41.16	1462
41.168	1457
41.176	1451
41.184	1443
41.192	1432
41.2	1419
41.208	1404
41.216	1386
41.224	1366.99999999998
41.232	1348
41.24	1329
41.248	1311
41.256	1292
41.264	1272
41.272	1254
41.28	1237
41.288	1221.99999999999
41.296	1207
41.304	1195
41.312	1186
41.32	1186
41.328	1208
41.336	1256
41.344	1332
41.352	1438.0000000001
41.36	1570
41.368	1720
41.376	1881
41.384	2041
41.392	2186
41.4	2307
41.408	2399
41.416	2457.00000000003
41.424	2480
41.432	2470
41.44	2431
41.448	2367
41.456	2283
41.464	2187
41.472	2084
41.48	1978.99999999991
41.488	1879
41.496	1787
41.504	1705
41.512	1633
41.52	1572
41.528	1522
41.536	1485
41.544	1461.99999999999
41.552	1450
41.56	1447
41.568	1450
41.576	1457
41.584	1468
41.592	1479
41.6	1489
41.608	1496
41.616	1500
41.624	1502
41.632	1502
41.64	1498
41.648	1490
41.656	1479
41.664	1466
41.672	1449.99999999998
41.68	1432
41.688	1412
41.696	1390
41.704	1366
41.712	1343
41.72	1323
41.728	1304
41.736	1285.99999999998
41.744	1268
41.752	1250
41.76	1235
41.768	1226
41.776	1223
41.784	1233
41.792	1264
41.8	1322.00000000006
41.808	1412
41.816	1533
41.824	1681
41.832	1848
41.84	2021
41.848	2189
41.856	2340
41.864	2464.00000000009
41.872	2555
41.88	2609
41.888	2627
41.896	2612
41.904	2567
41.912	2499
41.92	2413
41.928	2316.99999999991
41.936	2215
41.944	2110
41.952	2008
41.96	1913
41.968	1828
41.976	1754
41.984	1692
41.992	1643
42	1608
42.008	1584
42.016	1571
42.024	1568
42.032	1571
42.04	1578
42.048	1587
42.056	1600
42.064	1612
42.072	1622
42.08	1629
42.088	1633
42.096	1634
42.104	1631
42.112	1625
42.12	1614
42.128	1599
42.136	1583
42.144	1566
42.152	1548
42.16	1528.99999999998
42.168	1510
42.176	1489
42.184	1470
42.192	1453
42.2	1437
42.208	1421
42.216	1404
42.224	1386.99999999999
42.232	1377
42.24	1380
42.248	1401
42.256	1448
42.264	1527
42.272	1640
42.28	1783
42.288	1952.00000000016
42.296	2133
42.304	2315
42.312	2485
42.32	2629
42.328	2740
42.336	2815
42.344	2853
42.352	2854
42.36	2823
42.368	2767
42.376	2691
42.384	2601
42.392	2503
42.4	2402
42.408	2300
42.416	2200.99999999992
42.424	2110
42.432	2028
42.44	1956
42.448	1896
42.456	1849
42.464	1815
42.472	1794
42.48	1784
42.488	1782
42.496	1784
42.504	1788
42.512	1793
42.52	1797
42.528	1798
42.536	1796
42.544	1792
42.552	1787
42.56	1782
42.568	1774
42.576	1762
42.584	1746
42.592	1727
42.6	1706
42.608	1682.99999999998
42.616	1661
42.624	1638
42.632	1614
42.64	1591
42.648	1570
42.656	1550
42.664	1530
42.672	1509.99999999998
42.68	1489
42.688	1470
42.696	1456
42.704	1451
42.712	1464
42.72	1502
42.728	1570
42.736	1672.0000000001
42.744	1807
42.752	1967
42.76	2141
42.768	2319
42.776	2486
42.784	2627
42.792	2736
42.8	2809.00000000004
42.808	2845
42.816	2845
42.824	2815
42.832	2759
42.84	2682
42.848	2591
42.856	2492
42.864	2386.99999999991
42.872	2283
42.88	2182
42.888	2085
42.896	1997
42.904	1919
42.912	1852
42.92	1797
42.928	1754.99999999997
42.936	1724
42.944	1703
42.952	1692
42.96	1686
42.968	1683
42.976	1683
42.984	1683
42.992	1682
43	1679
43.008	1674
43.016	1665
43.024	1654
43.032	1639.99999999999
43.04	1622
43.048	1601
43.056	1579
43.064	1554
43.072	1526
43.08	1497
43.088	1469
43.096	1441.99999999998
43.104	1415
43.112	1390
43.12	1365
43.128	1342
43.136	1320
43.144	1299
43.152	1279
43.16	1260.99999999999
43.168	1248
43.176	1244
43.184	1257
43.192	1293
43.2	1357
43.208	1452
43.216	1576
43.224	1724.00000000014
43.232	1885
43.24	2049
43.248	2204
43.256	2337
43.264	2442
43.272	2512
43.28	2547
43.288	2551
43.296	2524
43.304	2471
43.312	2399
43.32	2313
43.328	2218
43.336	2118
43.344	2019
43.352	1923.99999999992
43.36	1828
43.368	1736
43.376	1656
43.384	1588
43.392	1534
43.4	1493
43.408	1465
43.416	1448.99999999999
43.424	1442
43.432	1442
43.44	1448
43.448	1457
43.456	1467
43.464	1476
43.472	1483
43.48	1487
43.488	1487
43.496	1483
43.504	1475
43.512	1464
43.52	1449
43.528	1431
43.536	1411
43.544	1389.99999999998
43.552	1366
43.56	1340
43.568	1313
43.576	1287
43.584	1263
43.592	1240
43.6	1217
43.608	1195.99999999998
43.616	1174
43.624	1154
43.632	1139
43.64	1131
43.648	1132
43.656	1149
43.664	1190
43.672	1258.00000000007
43.68	1357
43.688	1485
43.696	1637
43.704	1804
43.712	1974
43.72	2136
43.728	2278
43.736	2390.00000000008
43.744	2469
43.752	2514
43.76	2523
43.768	2501
43.776	2452
43.784	2380
43.792	2291
43.8	2192.99999999991
43.808	2089
43.816	1984
43.824	1883
43.832	1788
43.84	1700
43.848	1623
43.856	1558
43.864	1504.99999999996
43.872	1466
43.88	1438
43.888	1421
43.896	1415
43.904	1417
43.912	1425
43.92	1438
43.928	1453.00000000001
43.936	1468
43.944	1479
43.952	1487
43.96	1492
43.968	1493
43.976	1491
43.984	1485
43.992	1474.99999999999
44	1460
44.008	1440
44.016	1418
44.024	1395
44.032	1369.99999999998
44.04	1342
44.048	1314
44.056	1288
44.064	1265
44.072	1244
44.08	1223
44.088	1203
44.096	1183.99999999999
44.104	1169
44.112	1163
44.12	1171
44.128	1201
44.136	1261
44.144	1354
44.152	1478
44.16	1631.00000000014
44.168	1804
44.176	1984
44.184	2159
44.192	2317
44.2	2450
44.208	2551
44.216	2617
44.224	2646
44.232	2640
44.24	2604
44.248	2543
44.256	2463
44.264	2369
44.272	2268
44.28	2164
44.288	2059.99999999991
44.296	1960
44.304	1868
44.312	1784
44.32	1710
44.328	1648
44.336	1597
44.344	1559
44.352	1533.99999999998
44.36	1519
44.368	1514
44.376	1516
44.384	1525
44.392	1538
44.4	1551
44.408	1564
44.416	1574.00000000001
44.424	1581
44.432	1584
44.44	1582
44.448	1576
44.456	1567
44.464	1554
44.472	1537
44.48	1519.99999999998
44.488	1501
44.496	1481
44.504	1460
44.512	1438
44.52	1416
44.528	1396
44.536	1377
44.544	1357.99999999998
44.552	1338
44.56	1318
44.568	1301
44.576	1293
44.584	1299
44.592	1328
44.6	1387
44.608	1480.0000000001
44.616	1607
44.624	1766
44.632	1947
44.64	2139
44.648	2329
44.656	2505
44.664	2655
44.672	2772.00000000009
44.68	2853
44.688	2897
44.696	2904
44.704	2878
44.712	2823
44.72	2746
44.728	2653
44.736	2550.99999999991
44.744	2443
44.752	2333
44.76	2226
44.768	2126
44.776	2036
44.784	1957
44.792	1891
44.8	1837.99999999996
44.808	1797
44.816	1769
44.824	1752
44.832	1743
44.84	1742
44.848	1746
44.856	1755
44.864	1766.00000000001
44.872	1775
44.88	1782
44.888	1785
44.896	1785
44.904	1781
44.912	1774
44.92	1763
44.928	1747.99999999999
44.936	1729
44.944	1709
44.952	1686
44.96	1660
44.968	1634
44.976	1608
44.984	1581
44.992	1554.99999999998
45	1530
45.008	1504
45.016	1478
45.024	1452
45.032	1426.99999999998
45.04	1409
45.048	1403
45.056	1417
45.064	1461
45.072	1540
45.08	1657
45.088	1811
45.096	1991.00000000017
45.104	2187
45.112	2386
45.12	2573
45.128	2738
45.136	2870
45.144	2963
45.152	3018
45.16	3036
45.168	3021
45.176	2977
45.184	2908
45.192	2820
45.2	2720
45.208	2613
45.216	2503
45.224	2393.9999999999
45.232	2289
45.24	2192
45.248	2105
45.256	2029
45.264	1964
45.272	1912
45.28	1872
45.288	1842.99999999998
45.296	1825
45.304	1814
45.312	1808
45.32	1806
45.328	1806
45.336	1806
45.344	1805
45.352	1803
45.36	1797
45.368	1788
45.376	1776
45.384	1760
45.392	1739
45.4	1714
45.408	1676
45.416	1631.99999999996
45.424	1594
45.432	1559
45.44	1526
45.448	1493
45.456	1462
45.464	1431
45.472	1401
45.48	1371.99999999997
45.488	1344
45.496	1317
45.504	1291
45.512	1269
45.52	1256
45.528	1258
45.536	1285
45.544	1345.00000000007
45.552	1440
45.56	1569
45.568	1727
45.576	1904
45.584	2087
45.592	2264
45.6	2422
45.608	2552.0000000001
45.616	2648
45.624	2706
45.632	2727
45.64	2715
45.648	2674
45.656	2609
45.664	2527
45.672	2431.99999999991
45.68	2329
45.688	2224
45.696	2119
45.704	2018
45.712	1921
45.72	1834
45.728	1757
45.736	1691.99999999995
45.744	1639
45.752	1597
45.76	1566
45.768	1545
45.776	1534
45.784	1530
45.792	1531
45.8	1536
45.808	1542
45.816	1548
45.824	1551
45.832	1551
45.84	1548
45.848	1540
45.856	1528
45.864	1512.99999999999
45.872	1495
45.88	1475
45.888	1454
45.896	1430
45.904	1404
45.912	1378
45.92	1352
45.928	1324.99999999998
45.936	1299
45.944	1274
45.952	1250
45.96	1228
45.968	1207
45.976	1187
45.984	1168
45.992	1154
46	1152
46.008	1168
46.016	1208
46.024	1277
46.032	1378.0000000001
46.04	1507
46.048	1657
46.056	1819.00000000014
46.064	1983
46.072	2138
46.08	2275
46.088	2387
46.096	2469.00000000006
46.104	2519
46.112	2537
46.12	2525
46.128	2486
46.136	2426
46.144	2350
46.152	2262
46.16	2167.99999999992
46.168	2071
46.176	1976
46.184	1885
46.192	1801
46.2	1725
46.208	1658
46.216	1600
46.224	1549.99999999996
46.232	1510
46.24	1483
46.248	1467
46.256	1459
46.264	1458
46.272	1462
46.28	1469
46.288	1477.00000000001
46.296	1484
46.304	1488
46.312	1489
46.32	1487
46.328	1483
46.336	1478
46.344	1470
46.352	1458.99999999999
46.36	1446
46.368	1430
46.376	1411
46.384	1391
46.392	1371
46.4	1351
46.408	1331
46.416	1310.99999999998
46.424	1291
46.432	1270
46.44	1249
46.448	1230
46.456	1212
46.464	1199
46.472	1196
46.48	1208.00000000002
46.488	1243
46.496	1307
46.504	1402
46.512	1526
46.52	1673
46.528	1835
46.536	2001
46.544	2160.00000000013
46.552	2302
46.56	2420
46.568	2509
46.576	2567
46.584	2592
46.592	2587
46.6	2556
46.608	2501.99999999995
46.616	2432
46.624	2351
46.632	2264
46.64	2172
46.648	2080
46.656	1990
46.664	1904
46.672	1824.99999999993
46.68	1754
46.688	1691
46.696	1639
46.704	1598
46.712	1567
46.72	1546
46.728	1533
46.736	1527
46.744	1525
46.752	1527
46.76	1532
46.768	1538
46.776	1544
46.784	1549
46.792	1553
46.8	1554
46.808	1551
46.816	1545
46.824	1535
46.832	1521
46.84	1504
46.848	1485
46.856	1466
46.864	1444.99999999998
46.872	1424
46.88	1402
46.888	1380
46.896	1358
46.904	1336
46.912	1314
46.92	1292
46.928	1272.99999999999
46.936	1261
46.944	1262
46.952	1285
46.96	1337
46.968	1421
46.976	1538
46.984	1683
46.992	1850.00000000015
47	2028
47.008	2207
47.016	2376
47.024	2525
47.032	2649.00000000009
47.04	2741
47.048	2798
47.056	2822
47.064	2816
47.072	2783
47.08	2727
47.088	2652
47.096	2565.99999999992
47.104	2474
47.112	2378
47.12	2281
47.128	2188
47.136	2100
47.144	2019
47.152	1947
47.16	1884.99999999995
47.168	1833
47.176	1791
47.184	1761
47.192	1742
47.2	1732
47.208	1729
47.216	1730
47.224	1732
47.232	1734
47.24	1735
47.248	1735
47.256	1733
47.264	1730
47.272	1725
47.28	1719
47.288	1710.99999999999
47.296	1700
47.304	1685
47.312	1668
47.32	1648
47.328	1626
47.336	1603
47.344	1580
47.352	1555.99999999998
47.36	1532
47.368	1508
47.376	1483
47.384	1458
47.392	1434
47.4	1413
47.408	1401
47.416	1406.00000000001
47.424	1436
47.432	1498
47.44	1594
47.448	1724
47.456	1900
47.464	2111
47.472	2327
47.48	2534.00000000017
47.488	2720
47.496	2878
47.504	3002
47.512	3088
47.52	3134
47.528	3143
47.536	3120
47.544	3066.99999999994
47.552	2991
47.56	2897
47.568	2790
47.576	2675
47.584	2560
47.592	2447
47.6	2339
47.608	2237.99999999991
47.616	2147
47.624	2067
47.632	1997
47.64	1939
47.648	1895
47.656	1864
47.664	1843
47.672	1833
47.68	1830
47.688	1832
47.696	1837
47.704	1842
47.712	1844
47.72	1843
47.728	1838
47.736	1826.99999999999
47.744	1812
47.752	1792
47.76	1771
47.768	1749
47.776	1725
47.784	1699
47.792	1670
47.8	1637.99999999997
47.808	1604
47.816	1569
47.824	1534
47.832	1498
47.84	1463
47.848	1430
47.856	1397
47.864	1364.99999999997
47.872	1337
47.88	1319
47.888	1317
47.896	1338
47.904	1392
47.912	1487
47.92	1621
47.928	1788.00000000016
47.936	1979
47.944	2183
47.952	2384
47.96	2568
47.968	2727
47.976	2854
47.984	2943
47.992	2996.00000000002
48	3012
48.008	2994
48.016	2948
48.024	2877
48.032	2785.99999999991
48.04	2680
48.048	2566
48.056	2449.9999999999
48.064	2335
48.072	2223
48.08	2116
48.088	2017
48.096	1928.99999999993
48.104	1852
48.112	1786
48.12	1732.99999999995
48.128	1676
48.136	1651
48.144	1634
48.152	1614
48.16	1609
48.168	1607
48.176	1605
48.184	1604
48.192	1600
48.2	1593
48.208	1583
48.216	1569
48.224	1549.99999999998
48.232	1526
48.24	1502
48.248	1479
48.256	1455
48.264	1429
48.272	1403
48.28	1377
48.288	1349.99999999998
48.296	1324
48.304	1287
48.312	1262
48.32	1236
48.328	1195
48.336	1190
48.344	1202
48.352	1267.00000000007
48.36	1354
48.368	1472
48.376	1619
48.384	1790
48.392	1972
48.4	2154
48.408	2326
48.416	2477.00000000012
48.424	2600
48.432	2690
48.44	2745
48.448	2765
48.456	2753
48.464	2712
48.472	2646
48.48	2562.99999999992
48.488	2468
48.496	2364
48.504	2257
48.512	2152
48.52	2050
48.528	1953
48.536	1865
48.544	1786.99999999993
48.552	1718
48.56	1660
48.568	1615
48.576	1582
48.584	1558
48.592	1542
48.6	1534
48.608	1532
48.616	1535
48.624	1541
48.632	1546
48.64	1550
48.648	1553
48.656	1554
48.664	1552
48.672	1545.99999999999
48.68	1535
48.688	1521
48.696	1504
48.704	1485
48.712	1466
48.72	1444
48.728	1420
48.736	1395.99999999998
48.744	1371
48.752	1346
48.76	1320
48.768	1295
48.776	1272
48.784	1249
48.792	1228
48.8	1210.99999999999
48.808	1205
48.816	1217
48.824	1255
48.832	1323
48.84	1423
48.848	1554
48.856	1710
48.864	1883.00000000016
48.872	2063
48.88	2238
48.888	2397
48.896	2534
48.904	2643
48.912	2720
48.92	2762
48.928	2772
48.936	2752
48.944	2705
48.952	2637
48.96	2552
48.968	2454
48.976	2349
48.984	2242
48.992	2136.99999999991
49	2038
49.008	1945
49.016	1862
49.024	1789
49.032	1725.99999999995
49.04	1672
49.048	1631
49.056	1601.99999999998
49.064	1581
49.072	1569
49.08	1564
49.088	1564
49.096	1568
49.104	1574
49.112	1580
49.12	1584
49.128	1586
49.136	1587
49.144	1587
49.152	1584
49.16	1575.99999999999
49.168	1564
49.176	1548
49.184	1528
49.192	1506
49.2	1483
49.208	1460
49.216	1437
49.224	1414.99999999998
49.232	1393
49.24	1371
49.248	1348
49.256	1326
49.264	1306
49.272	1290
49.28	1287
49.288	1303.00000000002
49.296	1345
49.304	1420
49.312	1529
49.32	1670
49.328	1836
49.336	2021
49.344	2213
49.352	2400.00000000016
49.36	2572
49.368	2719
49.376	2835
49.384	2917
49.392	2963
49.4	2975
49.408	2955
49.416	2906.99999999995
49.424	2837
49.432	2750
49.44	2651
49.448	2546
49.456	2438
49.464	2331
49.472	2196
49.48	2052.99999999989
49.488	1945
49.496	1859
49.504	1791
49.512	1738
49.52	1696
49.528	1665
49.536	1646
49.544	1634.99999999999
49.552	1631
49.56	1631
49.568	1634
49.576	1638
49.584	1642
49.592	1645
49.6	1647
49.608	1647
49.616	1644
49.624	1637
49.632	1628
49.64	1616
49.648	1600
49.656	1580
49.664	1557
49.672	1533.99999999998
49.68	1512
49.688	1490
49.696	1468
49.704	1446
49.712	1422
49.72	1398
49.728	1376
49.736	1357.99999999999
49.744	1349
49.752	1355
49.76	1383
49.768	1442
49.776	1535
49.784	1664
49.792	1823
49.8	2005.00000000017
49.808	2199
49.816	2392
49.824	2573
49.832	2733
49.84	2864
49.848	2962
49.856	3025
49.864	3054
49.872	3049
49.88	3014
49.888	2953
49.896	2871
49.904	2774
49.912	2669
49.92	2561
49.928	2451.9999999999
49.936	2344
49.944	2242
49.952	2148
49.96	2062
49.968	1986
49.976	1922
49.984	1871
49.992	1830.99999999997
50	1801
50.008	1782
50.016	1771
50.024	1767
50.032	1766
50.04	1765
50.048	1765
50.056	1764
50.064	1761
50.072	1756
50.08	1747
50.088	1735
50.096	1717.99999999998
50.104	1698
50.112	1676
50.12	1651.99999999998
50.128	1628
50.136	1603
50.144	1578
50.152	1552
50.16	1526.99999999998
50.168	1505
50.176	1482
50.184	1456
50.192	1427
50.2	1398
50.208	1373
50.216	1357
50.224	1356
50.232	1378
50.24	1432
50.248	1521
50.256	1645
50.264	1799
50.272	1975
50.28	2163
50.288	2351.00000000016
50.296	2527
50.304	2681
50.312	2807
50.32	2900
50.328	2957
50.336	2980
50.344	2970
50.352	2929.99999999996
50.36	2864
50.368	2778
50.376	2678
50.384	2569
50.392	2456
50.4	2341
50.408	2229
50.416	2123.99999999991
50.424	2026
50.432	1937
50.44	1860
50.448	1794
50.456	1740
50.464	1697
50.472	1667
50.48	1648.99999999999
50.488	1639
50.496	1635
50.504	1634
50.512	1633
50.52	1633
50.528	1632
50.536	1629
50.544	1623.99999999999
50.552	1614
50.56	1599
50.568	1581
50.576	1559
50.584	1534
50.592	1509
50.6	1483
50.608	1454.99999999998
50.616	1427
50.624	1400
50.632	1373
50.64	1347
50.648	1321
50.656	1295
50.664	1271
50.672	1246.99999999998
50.68	1224
50.688	1207
50.696	1200
50.704	1208
50.712	1239
50.72	1297
50.728	1386
50.736	1505.00000000012
50.744	1651
50.752	1817
50.76	1992
50.768	2166
50.776	2329
50.784	2473
50.792	2590
50.8	2675.00000000006
50.808	2728
50.816	2746
50.824	2733
50.832	2692
50.84	2627
50.848	2547
50.856	2454
50.864	2351.99999999991
50.872	2249
50.88	2147
50.888	2046
50.896	1950
50.904	1863
50.912	1786
50.92	1718
50.928	1659.99999999995
50.936	1614
50.944	1580
50.952	1555
50.96	1539
50.968	1530
50.976	1525
50.984	1523
50.992	1522
51	1521
51.008	1520
51.016	1517
51.024	1514
51.032	1509
51.04	1503
51.048	1495
51.056	1482.99999999999
51.064	1467
51.072	1449
51.08	1428
51.088	1405
51.096	1383.99999999998
51.104	1362
51.112	1341
51.12	1321.99999999998
51.128	1301
51.136	1281
51.144	1263
51.152	1246
51.16	1230.99999999999
51.168	1224
51.176	1227
51.184	1245.00000000002
51.192	1284
51.2	1348
51.208	1440
51.216	1558
51.224	1697.00000000013
51.232	1852
51.24	2012
51.248	2168
51.256	2312
51.264	2434
51.272	2528
51.28	2593
51.288	2628.00000000001
51.296	2632
51.304	2608
51.312	2561
51.32	2495
51.328	2415
51.336	2326
51.344	2229
51.352	2131.99999999991
51.36	2037
51.368	1947
51.376	1864
51.384	1787
51.392	1719
51.4	1660
51.408	1610
51.416	1570.99999999997
51.424	1542
51.432	1522
51.44	1511
51.448	1507
51.456	1508
51.464	1511
51.472	1515
51.48	1519
51.488	1522
51.496	1522
51.504	1519
51.512	1514
51.52	1483
51.528	1439
51.536	1409
51.544	1384.99999999998
51.552	1365
51.56	1345
51.568	1324
51.576	1302
51.584	1281
51.592	1262
51.6	1241
51.608	1219.99999999998
51.616	1197
51.624	1175
51.632	1158
51.64	1148
51.648	1152
51.656	1177
51.664	1227
51.672	1306.00000000008
51.68	1415
51.688	1552
51.696	1711
51.704	1883
51.712	2057
51.72	2225
51.728	2377
51.736	2504.0000000001
51.744	2601
51.752	2666
51.76	2697
51.768	2696
51.776	2664
51.784	2608
51.792	2533
51.8	2444.99999999992
51.808	2349
51.816	2248
51.824	2145
51.832	2046
51.84	1951
51.848	1863
51.856	1783
51.864	1711.99999999994
51.872	1652
51.88	1604
51.888	1568
51.896	1545
51.904	1533
51.912	1529
51.92	1531
51.928	1535
51.936	1539
51.944	1543
51.952	1546
51.96	1546
51.968	1544
51.976	1541
51.984	1538
51.992	1531.99999999999
52	1523
52.008	1511
52.016	1495
52.024	1477
52.032	1456.99999999998
52.04	1436
52.048	1416
52.056	1396.99999999998
52.064	1378
52.072	1358
52.08	1338
52.088	1318
52.096	1298.99999999999
52.104	1286
52.112	1286
52.12	1307.00000000003
52.128	1355
52.136	1434
52.144	1545
52.152	1687
52.16	1854.00000000016
52.168	2037
52.176	2226
52.184	2409.00000000016
52.192	2576
52.2	2717
52.208	2828
52.216	2905
52.224	2947.00000000001
52.232	2955
52.24	2932
52.248	2881
52.256	2809
52.264	2720
52.272	2619
52.28	2511
52.288	2399.9999999999
52.296	2290
52.304	2185
52.312	2087
52.32	1998
52.328	1919
52.336	1852
52.344	1797
52.352	1754.99999999997
52.36	1725
52.368	1706
52.376	1695
52.384	1690
52.392	1688
52.4	1688
52.408	1687
52.416	1685
52.424	1680
52.432	1672
52.44	1663
52.448	1653
52.456	1639
52.464	1622
52.472	1603
52.48	1580.99999999998
52.488	1558
52.496	1535
52.504	1511
52.512	1486
52.52	1460
52.528	1435
52.536	1412
52.544	1387.99999999998
52.552	1363
52.56	1340
52.568	1322
52.576	1314
52.584	1324
52.592	1359
52.6	1426
52.608	1528.0000000001
52.616	1665
52.624	1830
52.632	2014
52.64	2208
52.648	2399
52.656	2578
52.664	2733
52.672	2857.00000000009
52.68	2946
52.688	2997
52.696	3012
52.704	2994
52.712	2947
52.72	2875
52.728	2783
52.736	2678.9999999999
52.744	2568
52.752	2453
52.76	2340
52.768	2231
52.776	2128
52.784	2032
52.792	1945
52.8	1868.99999999994
52.808	1806
52.816	1756
52.824	1718
52.832	1690
52.84	1672
52.848	1662
52.856	1656
52.864	1651
52.872	1647
52.88	1641
52.888	1631
52.896	1618
52.904	1603
52.912	1586
52.92	1566
52.928	1545.99999999998
52.936	1525
52.944	1503
52.952	1477
52.96	1448
52.968	1418
52.976	1388
52.984	1358
52.992	1328.99999999998
53	1302
53.008	1276
53.016	1251
53.024	1227
53.032	1205.99999999998
53.04	1190
53.048	1184
53.056	1194.00000000001
53.064	1227
53.072	1288
53.08	1378
53.088	1497
53.096	1642.00000000014
53.104	1806
53.112	1979
53.12	2150.00000000015
53.128	2308
53.136	2446
53.144	2558
53.152	2639
53.16	2688.00000000002
53.168	2703
53.176	2687
53.184	2644.99999999995
53.192	2581
53.2	2498
53.208	2402
53.216	2299
53.224	2192.99999999991
53.232	2087
53.24	1984
53.248	1886.99999999992
53.256	1798
53.264	1717
53.272	1649
53.28	1595
53.288	1554.99999999997
53.296	1526
53.304	1507
53.312	1498
53.32	1494
53.328	1495
53.336	1498
53.344	1500
53.352	1502
53.36	1502
53.368	1499
53.376	1494
53.384	1486
53.392	1475
53.4	1461
53.408	1443
53.416	1422.99999999998
53.424	1401
53.432	1377
53.44	1352
53.448	1326
53.456	1301
53.464	1278
53.472	1256
53.48	1234.99999999998
53.488	1216
53.496	1198
53.504	1182
53.512	1171
53.52	1170
53.528	1180
53.536	1207
53.544	1258.00000000005
53.552	1334
53.56	1435
53.568	1553
53.576	1684
53.584	1825
53.592	1967
53.6	2101
53.608	2222.0000000001
53.616	2322
53.624	2395
53.632	2440
53.64	2455
53.648	2443
53.656	2406
53.664	2347
53.672	2272.99999999993
53.68	2188
53.688	2095
53.696	2000
53.704	1906
53.712	1817
53.72	1735
53.728	1661
53.736	1596.99999999995
53.744	1544
53.752	1501
53.76	1469
53.768	1446
53.776	1431
53.784	1425
53.792	1424
53.8	1426
53.808	1431
53.816	1438
53.824	1443
53.832	1446
53.84	1447
53.848	1446
53.856	1441
53.864	1432.99999999999
53.872	1421
53.88	1407
53.888	1391
53.896	1372
53.904	1351
53.912	1328
53.92	1303
53.928	1280.99999999998
53.936	1260
53.944	1239
53.952	1220
53.96	1202
53.968	1186
53.976	1175
53.984	1173
53.992	1183.00000000001
54	1210
54.008	1259
54.016	1334
54.024	1433
54.032	1555.00000000012
54.04	1695
54.048	1846
54.056	1998.00000000013
54.064	2144
54.072	2275
54.08	2383
54.088	2463
54.096	2513.00000000002
54.104	2532
54.112	2522
54.12	2485.99999999996
54.128	2427
54.136	2351
54.144	2264
54.152	2171
54.16	2074.99999999991
54.168	1978
54.176	1885
54.184	1799.99999999993
54.192	1722
54.2	1654
54.208	1597
54.216	1553
54.224	1520.99999999998
54.232	1500
54.24	1488
54.248	1484
54.256	1486
54.264	1491
54.272	1498
54.28	1503
54.288	1506
54.296	1507
54.304	1506
54.312	1501
54.32	1495
54.328	1486
54.336	1473
54.344	1459
54.352	1441.99999999998
54.36	1422
54.368	1402
54.376	1382
54.384	1361
54.392	1340
54.4	1318
54.408	1296
54.416	1276.99999999998
54.424	1261
54.432	1248
54.44	1241
54.448	1245
54.456	1265
54.464	1306
54.472	1372
54.48	1466.00000000009
54.488	1586
54.496	1730
54.504	1892
54.512	2062
54.52	2229
54.528	2384
54.536	2518
54.544	2627.00000000008
54.552	2706
54.56	2750
54.568	2761
54.576	2742
54.584	2698
54.592	2634
54.6	2553
54.608	2458.99999999991
54.616	2357
54.624	2254
54.632	2153
54.64	2057
54.648	1968
54.656	1888
54.664	1820
54.672	1764.99999999996
54.68	1723
54.688	1692
54.696	1672
54.704	1662
54.712	1657
54.72	1656
54.728	1657
54.736	1659
54.744	1660
54.752	1659
54.76	1657
54.768	1653
54.776	1647
54.784	1639
54.792	1628
54.8	1612.99999999999
54.808	1596
54.816	1576
54.824	1555
54.832	1535
54.84	1515
54.848	1494
54.856	1472
54.864	1449.99999999998
54.872	1428
54.88	1407
54.888	1388
54.896	1372
54.904	1365
54.912	1373
54.92	1401
54.928	1454.00000000006
54.936	1535
54.944	1647
54.952	1787
54.96	1948
54.968	2119
54.976	2291
54.984	2452
54.992	2595.00000000012
55	2715
55.008	2804
55.016	2860
55.024	2885
55.032	2879.99999999999
55.04	2846
55.048	2787
55.056	2706.99999999992
55.064	2612
55.072	2507
55.08	2398
55.088	2289
55.096	2184.99999999991
55.104	2088
55.112	2001
55.12	1925.99999999994
55.128	1862
55.136	1811
55.144	1774
55.152	1749
55.16	1733.99999999999
55.168	1726
55.176	1724
55.184	1725
55.192	1727
55.2	1728
55.208	1726
55.216	1719
55.224	1707.99999999999
55.232	1693
55.24	1677
55.248	1658.99999999998
55.256	1638
55.264	1614
55.272	1587
55.28	1558
55.288	1527.99999999997
55.296	1499
55.304	1471
55.312	1444
55.32	1418
55.328	1393
55.336	1369
55.344	1345
55.352	1320.99999999998
55.36	1300
55.368	1287
55.376	1290
55.384	1313
55.392	1361
55.4	1438
55.408	1545
55.416	1681.00000000013
55.424	1838
55.432	2006
55.44	2176
55.448	2335
55.456	2473
55.464	2584
55.472	2664
55.48	2711.00000000002
55.488	2725
55.496	2706
55.504	2658
55.512	2589
55.52	2504
55.528	2405
55.536	2299
55.544	2190.9999999999
55.552	2084
55.56	1980
55.568	1884
55.576	1799
55.584	1727
55.592	1667
55.6	1618
55.608	1578.99999999997
55.616	1550
55.624	1530
55.632	1519
55.64	1514
55.648	1511
55.656	1510
55.664	1509
55.672	1508
55.68	1505
55.688	1501
55.696	1494
55.704	1483
55.712	1470
55.72	1454
55.728	1436
55.736	1416.99999999998
55.744	1398
55.752	1376
55.76	1352
55.768	1328
55.776	1304
55.784	1281
55.792	1260
55.8	1237.99999999998
55.808	1216
55.816	1197
55.824	1183
55.832	1174
55.84	1175
55.848	1194
55.856	1231
55.864	1290.00000000006
55.872	1374
55.88	1481
55.888	1608
55.896	1749
55.904	1897
55.912	2043
55.92	2178
55.928	2292.00000000009
55.936	2378
55.944	2435
55.952	2461
55.96	2454
55.968	2417
55.976	2356
55.984	2276
55.992	2181.99999999991
56	2080
56.008	1977
56.016	1877
56.024	1781
56.032	1692.99999999993
56.04	1616
56.048	1549
56.056	1492.99999999996
56.064	1449
56.072	1418
56.08	1398
56.088	1388
56.096	1386
56.104	1389
56.112	1395
56.12	1401
56.128	1406
56.136	1408
56.144	1408
56.152	1406
56.16	1401
56.168	1395
56.176	1387
56.184	1376.99999999999
56.192	1363
56.2	1346
56.208	1328
56.216	1308
56.224	1286.99999999998
56.232	1267
56.24	1247
56.248	1225.99999999998
56.256	1204
56.264	1183
56.272	1165
56.28	1151
56.288	1144
56.296	1146
56.304	1159
56.312	1190.00000000003
56.32	1242
56.328	1317
56.336	1417
56.344	1539
56.352	1679.00000000013
56.36	1829
56.368	1980
56.376	2124
56.384	2252
56.392	2357
56.4	2433
56.408	2476
56.416	2485
56.424	2463
56.432	2414
56.44	2342
56.448	2253
56.456	2153
56.464	2047
56.472	1939
56.48	1834.99999999991
56.488	1739
56.496	1652
56.504	1576
56.512	1513
56.52	1463
56.528	1427
56.536	1404
56.544	1391
56.552	1389
56.56	1393
56.568	1400
56.576	1407
56.584	1413
56.592	1417
56.6	1418
56.608	1415
56.616	1409
56.624	1402
56.632	1394
56.64	1384
56.648	1373
56.656	1359
56.664	1342
56.672	1322.99999999998
56.68	1303
56.688	1283
56.696	1263
56.704	1242
56.712	1220
56.72	1199
56.728	1180
56.736	1163.99999999999
56.744	1154
56.752	1154
56.76	1170
56.768	1207
56.776	1270
56.784	1360
56.792	1477
56.8	1619.00000000013
56.808	1780
56.816	1950
56.824	2121
56.832	2284
56.84	2426
56.848	2540
56.856	2621
56.864	2667.00000000002
56.872	2678
56.88	2655
56.888	2604
56.896	2529
56.904	2436
56.912	2329
56.92	2215
56.928	2099.9999999999
56.936	1990
56.944	1888
56.952	1796
56.96	1716
56.968	1650
56.976	1599
56.984	1563
56.992	1540.99999999999
57	1530
57.008	1526
57.016	1527
57.024	1532
57.032	1538.00000000001
57.04	1544
57.048	1548
57.056	1549
57.064	1547
57.072	1542
57.08	1535
57.088	1527
57.096	1516.99999999999
57.104	1504
57.112	1488
57.12	1470.99999999998
57.128	1453
57.136	1434
57.144	1414
57.152	1395
57.16	1375.99999999998
57.168	1355
57.176	1335
57.184	1315.99999999998
57.192	1299
57.2	1290
57.208	1294
57.216	1318
57.224	1367.00000000005
57.232	1447
57.24	1560
57.248	1703.00000000014
57.256	1872
57.264	2055
57.272	2243
57.28	2424
57.288	2586.00000000013
57.296	2723
57.304	2828
57.312	2895.00000000004
57.32	2925
57.328	2919
57.336	2881
57.344	2814
57.352	2721.99999999991
57.36	2613
57.368	2495
57.376	2373
57.384	2252
57.392	2138
57.4	2036
57.408	1948
57.416	1873.99999999994
57.424	1814
57.432	1769
57.44	1737
57.448	1715
57.456	1701
57.464	1693
57.472	1690
57.48	1690
57.488	1691
57.496	1692
57.504	1690
57.512	1685
57.52	1678
57.528	1666
57.536	1652
57.544	1636.99999999999
57.552	1621
57.56	1603
57.568	1583
57.576	1561
57.584	1538
57.592	1513
57.6	1487
57.608	1460.99999999998
57.616	1435
57.624	1411
57.632	1387
57.64	1364
57.648	1347
57.656	1340
57.664	1350
57.672	1381.00000000004
57.68	1435
57.688	1518
57.696	1633
57.704	1780
57.712	1949
57.72	2132
57.728	2316
57.736	2491.00000000015
57.744	2647
57.752	2773
57.76	2864
57.768	2917
57.776	2933
57.784	2914
57.792	2865
57.8	2788.99999999992
57.808	2690
57.816	2577
57.824	2457
57.832	2335
57.84	2215
57.848	2100
57.856	1994
57.864	1901.99999999992
57.872	1824
57.88	1758
57.888	1705
57.896	1665
57.904	1635
57.912	1613
57.92	1597
57.928	1585.99999999999
57.936	1577
57.944	1570
57.952	1563
57.96	1555
57.968	1546
57.976	1535
57.984	1523
57.992	1509.99999999999
58	1494
58.008	1477
58.016	1459
58.024	1439
58.032	1417.99999999998
58.04	1394
58.048	1368
58.056	1339.99999999997
58.064	1311
58.072	1283
58.08	1255
58.088	1227
58.096	1199.99999999998
58.104	1177
58.112	1162
58.12	1157
58.128	1167
58.136	1197
58.144	1254
58.152	1339
58.16	1454.00000000011
58.168	1596
58.176	1759
58.184	1932.00000000015
58.192	2103
58.2	2263
58.208	2400
58.216	2506
58.224	2576.00000000004
58.232	2608
58.24	2603
58.248	2563.99999999996
58.256	2496
58.264	2406
58.272	2299
58.28	2183
58.288	2063.99999999989
58.296	1946
58.304	1833
58.312	1729.99999999991
58.32	1639
58.328	1563
58.336	1501
58.344	1453
58.352	1419.99999999998
58.36	1399
58.368	1388
58.376	1383
58.384	1384
58.392	1387
58.4	1392
58.408	1397
58.416	1401
58.424	1403
58.432	1402
58.44	1396
58.448	1387
58.456	1376
58.464	1360
58.472	1341
58.48	1319.99999999998
58.488	1297
58.496	1263
58.504	1238
58.512	1213
58.52	1166
58.528	1145
58.536	1127
58.544	1097.99999999999
58.552	1093
58.56	1099
58.568	1135
58.576	1186
58.584	1263
58.592	1368
58.6	1497
58.608	1648.00000000014
58.616	1811
58.624	1975
58.632	2129
58.64	2263
58.648	2368
58.656	2439
58.664	2472
58.672	2452.99999999998
58.68	2404
58.688	2284
58.696	2180
58.704	2067
58.712	1951
58.72	1835
58.728	1725
58.736	1626.99999999992
58.744	1542
58.752	1471
58.76	1416
58.768	1374
58.776	1345
58.784	1328
58.792	1319
58.8	1318
58.808	1322
58.816	1329
58.824	1337
58.832	1344
58.84	1349
58.848	1352
58.856	1351
58.864	1347
58.872	1339
58.88	1327
58.888	1311
58.896	1293
58.904	1274
58.912	1253
58.92	1231
58.928	1207.99999999998
58.936	1185
58.944	1163
58.952	1141
58.96	1120
58.968	1100
58.976	1082
58.984	1068
58.992	1062
59	1069
59.008	1095
59.016	1143
59.024	1218
59.032	1323.0000000001
59.04	1457
59.048	1615
59.056	1790.00000000016
59.064	1970
59.072	2144
59.08	2302
59.088	2434
59.096	2532.00000000007
59.104	2592
59.112	2612
59.12	2591.99999999997
59.128	2536
59.136	2451
59.144	2344
59.152	2222
59.16	2093.99999999989
59.168	1967
59.176	1845
59.184	1731.99999999991
59.192	1634
59.2	1552
59.208	1486
59.216	1437
59.224	1402.99999999998
59.232	1381
59.24	1369
59.248	1364
59.256	1364
59.264	1368
59.272	1374
59.28	1380
59.288	1386
59.296	1391
59.304	1394
59.312	1394
59.32	1391
59.328	1385
59.336	1374
59.344	1358
59.352	1338.99999999998
59.36	1318
59.368	1295
59.376	1271.99999999998
59.384	1247
59.392	1222
59.4	1197
59.408	1175
59.416	1155.99999999998
59.424	1139
59.432	1127
59.44	1123
59.448	1132
59.456	1159
59.464	1211
59.472	1292
59.48	1406.00000000011
59.488	1553
59.496	1726
59.504	1915
59.512	2111
59.52	2300
59.528	2470
59.536	2611
59.544	2716.00000000007
59.552	2781
59.56	2805
59.568	2789
59.576	2738
59.584	2657
59.592	2554
59.6	2435
59.608	2307.99999999989
59.616	2178
59.624	2053
59.632	1938
59.64	1833
59.648	1744
59.656	1672
59.664	1615
59.672	1573.99999999999
59.68	1565
59.688	1577
59.696	1583
59.704	1588
59.712	1593
59.72	1598
59.728	1601
59.736	1603
59.744	1603
59.752	1602
59.76	1600
59.768	1596
59.776	1589
59.784	1579
59.792	1566
59.8	1549.99999999998
59.808	1531
59.816	1512
59.824	1493
59.832	1473
59.84	1453
59.848	1432
59.856	1408
59.864	1384.99999999998
59.872	1364
59.88	1344
59.888	1330
59.896	1329
59.904	1347
59.912	1391
59.92	1466
59.928	1574.00000000011
59.936	1718
59.944	1892
59.952	2085
59.96	2285
59.968	2477
59.976	2648
59.984	2789
59.992	2894.00000000007
60	2958
60.008	2984
60.016	2972
60.024	2924
60.032	2846.99999999992
60.04	2746
60.048	2626
60.056	2496.99999999988
60.064	2367
60.072	2240
60.08	2119
60.088	2010
60.096	1914.99999999992
60.104	1835
60.112	1771
60.12	1723.99999999996
60.128	1690
60.136	1668
60.144	1656
60.152	1650
60.16	1647
60.168	1646
60.176	1645
60.184	1643
60.192	1638
60.2	1629
60.208	1618
60.216	1606
60.224	1592.99999999999
60.232	1577
60.24	1558
60.248	1534.99999999998
60.256	1510
60.264	1483
60.272	1455
60.28	1425
60.288	1393.99999999997
60.296	1362
60.304	1329
60.312	1297.99999999997
60.32	1268
60.328	1240
60.336	1216
60.344	1201
60.352	1203
60.36	1227
60.368	1278
60.376	1362.00000000009
60.384	1482
60.392	1634
60.4	1810
60.408	1999
60.416	2190.00000000016
60.424	2367
60.432	2519
60.44	2638
60.448	2717
60.456	2755
60.464	2752
60.472	2709
60.48	2632.99999999992
60.488	2532
60.496	2411
60.504	2277
60.512	2138
60.52	2001
60.528	1872
60.536	1754
60.544	1649.99999999991
60.552	1561
60.56	1489
60.568	1434
60.576	1394
60.584	1367
60.592	1351
60.6	1343
60.608	1341
60.616	1343
60.624	1347
60.632	1351
60.64	1353
60.648	1352
60.656	1347
60.664	1339
60.672	1327.99999999999
60.68	1314
60.688	1298
60.696	1280
60.704	1262
60.712	1243
60.72	1221
60.728	1197
60.736	1171.99999999998
60.744	1146
60.752	1120
60.76	1095
60.768	1071
60.776	1048
60.784	1029
60.792	1016
60.8	1010
60.808	1017
60.816	1044
60.824	1094
60.832	1173
60.84	1286
60.848	1427
60.856	1589
60.864	1764.00000000016
60.872	1939
60.88	2103
60.888	2245
60.896	2355
60.904	2428
60.912	2461
60.92	2456
60.928	2412.99999999995
60.936	2338
60.944	2238
60.952	2122
60.96	1997
60.968	1869
60.976	1744
60.984	1627
60.992	1521.99999999991
61	1430
61.008	1354
61.016	1295
61.024	1251
61.032	1219.99999999998
61.04	1201
61.048	1192
61.056	1189
61.064	1191
61.072	1196
61.08	1201
61.088	1206
61.096	1210
61.104	1212
61.112	1211
61.12	1209
61.128	1204
61.136	1195
61.144	1184
61.152	1169
61.16	1151.99999999998
61.168	1132
61.176	1110
61.184	1086.99999999998
61.192	1062
61.2	1036
61.208	1012
61.216	988
61.224	964.99999999998
61.232	944
61.24	926
61.248	915
61.256	916
61.264	934
61.272	974
61.28	1041
61.288	1138.0000000001
61.296	1265
61.304	1418
61.312	1586.00000000015
61.32	1761
61.328	1933
61.336	2088
61.344	2214
61.352	2306.00000000006
61.36	2360
61.368	2374
61.376	2348.99999999997
61.384	2291
61.392	2204
61.4	2094
61.408	1970
61.416	1839.99999999988
61.424	1711
61.432	1590
61.44	1480
61.448	1384
61.456	1304
61.464	1241
61.472	1195
61.48	1162.99999999998
61.488	1145
61.496	1139
61.504	1140
61.512	1145
61.52	1153
61.528	1161
61.536	1168
61.544	1172
61.552	1173
61.56	1172
61.568	1167
61.576	1159
61.584	1148
61.592	1135
61.6	1120
61.608	1099.99999999998
61.616	1078
61.624	1055
61.632	1033
61.64	1010
61.648	986
61.656	964
61.664	942
61.672	919.999999999982
61.68	901
61.688	887
61.696	878
61.704	878
61.712	895
61.72	936
61.728	1066
61.736	1253.00000000015
61.744	1416
61.752	1576
61.76	1740
61.768	1904
61.776	2060
61.784	2199
61.792	2314
61.8	2398.00000000006
61.808	2448
61.816	2463
61.824	2446
61.832	2400
61.84	2330
61.848	2241
61.856	2140
61.864	2031.9999999999
61.872	1924
61.88	1820
61.888	1724
61.896	1640
61.904	1569
61.912	1513
61.92	1471
61.928	1440.99999999998
61.936	1422
61.944	1411
61.952	1408
61.96	1409
61.968	1414
61.976	1421
61.984	1429
61.992	1437.00000000001
62	1443
62.008	1446
62.016	1446
62.024	1444
62.032	1438.99999999999
62.04	1432
62.048	1422
62.056	1408.99999999999
62.064	1395
62.072	1380
62.08	1364
62.088	1348
62.096	1330.99999999998
62.104	1314
62.112	1297
62.12	1279.99999999998
62.128	1262
62.136	1247
62.144	1238
62.152	1237
62.16	1252.00000000002
62.168	1289
62.176	1354
62.184	1449.0000000001
62.192	1575
62.2	1726
62.208	1893
62.216	2066
62.224	2231.00000000014
62.232	2377
62.24	2494
62.248	2576.00000000005
62.256	2623
62.264	2636
62.272	2616
62.28	2568
62.288	2495.99999999993
62.296	2406
62.304	2305
62.312	2197.9999999999
62.32	2088
62.328	1982
62.336	1885
62.344	1800
62.352	1726.99999999994
62.36	1668
62.368	1622
62.376	1588.99999999998
62.384	1567
62.392	1554
62.4	1547
62.408	1546
62.416	1548
62.424	1552
62.432	1556
62.44	1558
62.448	1558
62.456	1555
62.464	1550
62.472	1541
62.48	1529.99999999999
62.488	1517
62.496	1503
62.504	1488
62.512	1471
62.52	1454
62.528	1435
62.536	1415
62.544	1395.99999999998
62.552	1377
62.56	1358
62.568	1340
62.576	1323
62.584	1306
62.592	1291
62.6	1284
62.608	1289.00000000001
62.616	1315
62.624	1368
62.632	1450
62.64	1564
62.648	1708
62.656	1872
62.664	2044
62.672	2211.00000000014
62.68	2360
62.688	2481
62.696	2569
62.704	2620
62.712	2636
62.72	2619
62.728	2573
62.736	2504.99999999993
62.744	2419
62.752	2319
62.76	2212
62.768	2103
62.776	1997
62.784	1897
62.792	1805
62.8	1722.99999999993
62.808	1654
62.816	1597
62.824	1552
62.832	1517
62.84	1492
62.848	1474
62.856	1462
62.864	1452.99999999999
62.872	1446
62.88	1440
62.888	1434
62.896	1426
62.904	1417
62.912	1408
62.92	1396
62.928	1382.99999999999
62.936	1370
62.944	1354
62.952	1337
62.96	1319
62.968	1300
62.976	1280
62.984	1258
62.992	1235.99999999998
63	1214
63.008	1192
63.016	1171
63.024	1151
63.032	1130.99999999998
63.04	1112
63.048	1096
63.056	1087
63.064	1090
63.072	1110
63.08	1155
63.088	1230
63.096	1334.0000000001
63.104	1465
63.112	1616
63.12	1775.00000000014
63.128	1932
63.136	2074
63.144	2191
63.152	2278
63.16	2331.00000000002
63.168	2349
63.176	2334
63.184	2290.99999999995
63.192	2226
63.2	2142
63.208	2045
63.216	1941
63.224	1834.99999999991
63.232	1732
63.24	1635
63.248	1549.99999999993
63.256	1477
63.264	1418
63.272	1372
63.28	1337
63.288	1312.99999999998
63.296	1298
63.304	1289
63.312	1286
63.32	1285
63.328	1286
63.336	1287
63.344	1288
63.352	1288
63.36	1288
63.368	1288
63.376	1286
63.384	1282
63.392	1277
63.4	1271
63.408	1262
63.416	1249.99999999999
63.424	1237
63.432	1222
63.44	1204.99999999998
63.448	1188
63.456	1170
63.464	1152
63.472	1133
63.48	1114.99999999998
63.488	1099
63.496	1085
63.504	1074
63.512	1069
63.52	1075
63.528	1096
63.536	1138
63.544	1206.00000000007
63.552	1301
63.56	1422
63.568	1560
63.576	1708
63.584	1856
63.592	1991
63.6	2105
63.608	2192.00000000006
63.616	2247
63.624	2269
63.632	2259
63.64	2222
63.648	2161
63.656	2082
63.664	1992
63.672	1895.99999999991
63.68	1799
63.688	1706
63.696	1619
63.704	1542
63.712	1475
63.72	1422
63.728	1381
63.736	1351.99999999998
63.744	1332
63.752	1321
63.76	1318
63.768	1320
63.776	1357
63.784	1412
63.792	1443
63.8	1462.00000000001
63.808	1474
63.816	1481
63.824	1485
63.832	1486
63.84	1483
63.848	1478
63.856	1470
63.864	1458.99999999999
63.872	1445
63.88	1427
63.888	1407
63.896	1387
63.904	1366
63.912	1343
63.92	1321
63.928	1299.99999999998
63.936	1279
63.944	1260
63.952	1243
63.96	1232
63.968	1231
63.976	1246
63.984	1280
63.992	1340.00000000006
64	1431
64.008	1552
64.016	1697
64.024	1862
64.032	2033
64.04	2198
64.048	2346
64.056	2467
64.064	2553.00000000011
64.072	2602
64.08	2613
64.088	2587.99999999994
64.096	2533
64.104	2456
64.112	2361
64.12	2256
64.128	2145
64.136	2036
64.144	1932
64.152	1837
64.16	1755
64.168	1686
64.176	1630
64.184	1588
64.192	1558.99999999996
64.2	1542
64.208	1534
64.216	1535
64.224	1542
64.232	1551
64.24	1562
64.248	1570
64.256	1576
64.264	1579
64.272	1579
64.28	1577
64.288	1571
64.296	1562
64.304	1550
64.312	1535
64.32	1519.99999999997
64.328	1504
64.336	1488
64.344	1471.99999999997
64.352	1454
64.36	1434
64.368	1415
64.376	1398
64.384	1381
64.392	1365
64.4	1349
64.408	1336
64.416	1328
64.424	1331
64.432	1354
64.44	1402
64.448	1480.00000000016
64.456	1590
64.464	1732
64.472	1899.00000000031
64.48	2080
64.488	2261
64.496	2431
64.504	2577
64.512	2689
64.52	2761
64.528	2793
64.536	2789
64.544	2754
64.552	2693
64.56	2612
64.568	2515
64.576	2409.99999999981
64.584	2303
64.592	2199
64.6	2099
64.608	2008
64.616	1930
64.624	1865
64.632	1814
64.64	1776
64.648	1750
64.656	1735
64.664	1729
64.672	1728
64.68	1730
64.688	1736
64.696	1743
64.704	1749.00000000001
64.712	1753
64.72	1755
64.728	1755
64.736	1752
64.744	1745
64.752	1736
64.76	1725
64.768	1715
64.776	1703
64.784	1688
64.792	1672
64.8	1654
64.808	1634
64.816	1614
64.824	1595
64.832	1576.99999999997
64.84	1557
64.848	1536
64.856	1516
64.864	1500
64.872	1493
64.88	1501
64.888	1531
64.896	1592
64.904	1687
64.912	1818
64.92	1980
64.928	2163
64.936	2355
64.944	2540
64.952	2702
64.96	2833.00000000019
64.968	2927
64.976	2980
64.984	2994
64.992	2974
65	2924
65.008	2851
65.016	2762
65.024	2660
65.032	2552
65.04	2443
65.048	2337
65.056	2237
65.064	2146.99999999985
65.072	2068
65.08	2002
65.088	1950.99999999992
65.096	1914
65.104	1888
65.112	1872
65.12	1865
65.128	1865
65.136	1869
65.144	1874
65.152	1878
65.16	1880
65.168	1879
65.176	1874
65.184	1863
65.192	1848.99999999997
65.2	1832
65.208	1813
65.216	1792.99999999996
65.224	1771
65.232	1749
65.24	1727
65.248	1704
65.256	1680
65.264	1656
65.272	1633
65.28	1610
65.288	1585
65.296	1561
65.304	1538
65.312	1516
65.32	1495.99999999997
65.328	1482
65.336	1480
65.344	1496.00000000004
65.352	1538
65.36	1613
65.368	1723
65.376	1864
65.384	2028
65.392	2203
65.4	2375
65.408	2531
65.416	2660
65.424	2753
65.432	2808
65.44	2825
65.448	2807.99999999996
65.456	2761
65.464	2692
65.472	2603.99999999983
65.48	2504
65.488	2398
65.496	2290
65.504	2184
65.512	2083
65.52	1990
65.528	1908
65.536	1840
65.544	1785
65.552	1744
65.56	1715
65.568	1697
65.576	1685.99999999998
65.584	1679
65.592	1676
65.6	1674
65.608	1672
65.616	1669
65.624	1665
65.632	1659
65.64	1651
65.648	1641
65.656	1629
65.664	1616
65.672	1601
65.68	1585
65.688	1569
65.696	1552
65.704	1532.99999999997
65.712	1515
65.72	1497
65.728	1478
65.736	1458
65.744	1438
65.752	1420
65.76	1403
65.768	1386
65.776	1370
65.784	1356
65.792	1347
65.8	1349
65.808	1367
65.816	1409
65.824	1461
65.832	1532.00000000015
65.84	1644
65.848	1785
65.856	1940
65.864	2094
65.872	2236
65.88	2355
65.888	2444
65.896	2498
65.904	2516
65.912	2502
65.92	2460
65.928	2394
65.936	2310
65.944	2214
65.952	2113
65.96	2011.99999999982
65.968	1914
65.976	1824
65.984	1745
65.992	1679
66	1626
66.008	1585
66.016	1556
66.024	1537
66.032	1528
66.04	1526
66.048	1528
66.056	1532
66.064	1538.00000000001
66.072	1544
66.08	1548
66.088	1550
66.096	1550
66.104	1548
66.112	1544
66.12	1539
66.128	1532
66.136	1521
66.144	1509
66.152	1493
66.16	1474
66.168	1454
66.176	1434
66.184	1414
66.192	1393.99999999996
66.2	1374
66.208	1354
66.216	1334.99999999997
66.224	1319
66.232	1304
66.24	1290
66.248	1281
66.256	1280
66.264	1292
66.272	1325
66.28	1383
66.288	1468
66.296	1580
66.304	1716
66.312	1867
66.32	2024.00000000027
66.328	2175
66.336	2308
66.344	2413.00000000015
66.352	2487
66.36	2527
66.368	2532
66.376	2505
66.384	2453
66.392	2381
66.4	2297
66.408	2205
66.416	2108
66.424	2011
66.432	1919
66.44	1835
66.448	1759.99999999988
66.456	1695
66.464	1645
66.472	1607.99999999995
66.48	1582
66.488	1567
66.496	1561
66.504	1561
66.512	1566
66.52	1573
66.528	1581
66.536	1589
66.544	1595
66.552	1598
66.56	1599
66.568	1598
66.576	1591.99999999999
66.584	1583
66.592	1573
66.6	1560
66.608	1544
66.616	1528
66.624	1511
66.632	1493
66.64	1473
66.648	1452
66.656	1432
66.664	1415
66.672	1399
66.68	1381
66.688	1363
66.696	1347
66.704	1333.99999999998
66.712	1327
66.72	1333
66.728	1359
66.736	1411
66.744	1492
66.752	1603
66.76	1741
66.768	1898
66.776	2065
66.784	2230
66.792	2378
66.8	2502
66.808	2594
66.816	2649
66.824	2669
66.832	2655.99999999996
66.84	2615
66.848	2552
66.856	2469
66.864	2375
66.872	2276
66.88	2175
66.888	2077
66.896	1985
66.904	1903
66.912	1834
66.92	1777
66.928	1732
66.936	1699
66.944	1679
66.952	1670
66.96	1669
66.968	1675
66.976	1685
66.984	1697
66.992	1709
67	1720
67.008	1729
67.016	1735
67.024	1737
67.032	1736
67.04	1731
67.048	1723
67.056	1712
67.064	1696.99999999997
67.072	1679
67.08	1658
67.088	1635.99999999996
67.096	1614
67.104	1592
67.112	1572
67.12	1555
67.128	1539
67.136	1523
67.144	1508
67.152	1492
67.16	1478
67.168	1470
67.176	1473
67.184	1494
67.192	1541.00000000011
67.2	1621
67.208	1732
67.216	1872.00000000027
67.224	2036
67.232	2213
67.24	2390
67.248	2551
67.256	2687
67.264	2790
67.272	2856
67.28	2886
67.288	2881
67.296	2846
67.304	2786
67.312	2708
67.32	2618.99999999984
67.328	2524
67.336	2426
67.344	2329.99999999983
67.352	2238
67.36	2154
67.368	2081
67.376	2020
67.384	1970
67.392	1931
67.4	1903
67.408	1885
67.416	1874
67.424	1868
67.432	1868
67.44	1870
67.448	1872
67.456	1874
67.464	1874
67.472	1872
67.48	1868
67.488	1862
67.496	1853
67.504	1841
67.512	1827
67.52	1810
67.528	1790
67.536	1769
67.544	1748
67.552	1726
67.56	1703
67.568	1681
67.576	1659.99999999996
67.584	1640
67.592	1621
67.6	1603
67.608	1584
67.616	1563
67.624	1546
67.632	1536
67.64	1539
67.648	1562
67.656	1612
67.664	1697
67.672	1816
67.68	1962
67.688	2129
67.696	2305
67.704	2474.00000000028
67.712	2623
67.72	2745
67.728	2832
67.736	2881
67.744	2895
67.752	2876
67.76	2830
67.768	2763
67.776	2679
67.784	2584
67.792	2483
67.8	2381
67.808	2282
67.816	2188
67.824	2102
67.832	2025.99999999988
67.84	1961
67.848	1909
67.856	1869
67.864	1839
67.872	1793
67.88	1742
67.888	1714
67.896	1700
67.904	1694
67.912	1690
67.92	1685
67.928	1678
67.936	1667
67.944	1654
67.952	1637
67.96	1615.99999999996
67.968	1591
67.976	1565
67.984	1538
67.992	1510
68	1483
68.008	1457
68.016	1431
68.024	1406
68.032	1380
68.04	1354
68.048	1329
68.056	1305
68.064	1280.99999999996
68.072	1258
68.08	1236
68.088	1214.99999999997
68.096	1198
68.104	1189
68.112	1197
68.12	1230
68.128	1294
68.136	1393
68.144	1526
68.152	1686
68.16	1863
68.168	2046
68.176	2219
68.184	2370
68.192	2487.00000000017
68.2	2566
68.208	2606
68.216	2609
68.224	2579
68.232	2519
68.24	2437
68.248	2340
68.256	2234
68.264	2125
68.272	2017
68.28	1913
68.288	1817
68.296	1731
68.304	1655
68.312	1591
68.32	1540.99999999993
68.328	1506
68.336	1484
68.344	1472.99999999999
68.352	1470
68.36	1472
68.368	1478
68.376	1485
68.384	1493
68.392	1499
68.4	1501
68.408	1500
68.416	1495
68.424	1487
68.432	1477
68.44	1464
68.448	1445.99999999997
68.456	1425
68.464	1403
68.472	1379.99999999996
68.48	1355
68.488	1330
68.496	1305
68.504	1282
68.512	1259
68.52	1238
68.528	1218
68.536	1198
68.544	1179
68.552	1162
68.56	1146
68.568	1136
68.576	1138.00000000001
68.584	1158
68.592	1201
68.6	1273.00000000015
68.608	1376
68.616	1507
68.624	1661
68.632	1828
68.64	1996
68.648	2151
68.656	2284
68.664	2388
68.672	2457
68.68	2489
68.688	2486
68.696	2451
68.704	2389.99999999988
68.712	2308
68.72	2213
68.728	2112
68.736	2008
68.744	1906
68.752	1810
68.76	1721
68.768	1641
68.776	1573
68.784	1518
68.792	1475
68.8	1445
68.808	1426
68.816	1415
68.824	1413
68.832	1417.00000000001
68.84	1424
68.848	1433
68.856	1444
68.864	1456
68.872	1462
68.88	1464
68.888	1460
68.896	1452
68.904	1440
68.912	1406
68.92	1384
68.928	1360
68.936	1321
68.944	1294
68.952	1267
68.96	1242.99999999996
68.968	1220
68.976	1196
68.984	1173
68.992	1153
69	1137
69.008	1127
69.016	1127
69.024	1143
69.032	1215
69.04	1299
69.048	1415
69.056	1639
69.064	1815.00000000032
69.072	1995
69.08	2165
69.088	2316.00000000024
69.096	2438
69.104	2525
69.112	2574
69.12	2586
69.128	2565
69.136	2513
69.144	2438
69.152	2347
69.16	2247
69.168	2143
69.176	2038
69.184	1935
69.192	1838.99999999984
69.2	1753
69.208	1678
69.216	1612.9999999999
69.224	1561
69.232	1523
69.24	1499
69.248	1486
69.256	1482
69.264	1486
69.272	1495
69.28	1507
69.288	1518
69.296	1528
69.304	1537
69.312	1543
69.32	1545
69.328	1543
69.336	1537
69.344	1527.99999999998
69.352	1516
69.36	1501
69.368	1484
69.376	1464
69.384	1441
69.392	1418
69.4	1395
69.408	1373
69.416	1351
69.424	1329
69.432	1308
69.44	1287
69.448	1266.99999999997
69.456	1249
69.464	1237
69.472	1235
69.48	1250
69.488	1291
69.496	1365
69.504	1474
69.512	1616
69.52	1784
69.528	1968
69.536	2156
69.544	2336
69.552	2496
69.56	2626
69.568	2720
69.576	2775.00000000005
69.584	2792
69.592	2774
69.6	2725.9999999999
69.608	2654
69.616	2565
69.624	2466
69.632	2361
69.64	2255
69.648	2152
69.656	2055
69.664	1968
