Time	PPG1
0	1994
0.008	1860
0.016	1731
0.024	1613
0.032	1507
0.04	1415
0.048	1340
0.056	1281
0.064	1239
0.072	1212
0.08	1196
0.088	1190
0.096	1191
0.104	1197
0.112	1205
0.12	1212
0.128	1217
0.136	1221
0.144	1223
0.152	1222
0.16	1218
0.168	1213
0.176	1206
0.184	1195
0.192	1181
0.2	1164
0.208	1144
0.216	1122
0.224	1099
0.232	1076
0.24	1052
0.248	1029
0.256	1009
0.264	992
0.272	978
0.28	970
0.288	973
0.296	993
0.304	1036
0.312	1108
0.32	1213
0.328	1352
0.336	1518
0.344	1703
0.352	1896
0.36	2082
0.368	2250
0.376	2390
0.384	2494
0.392	2558
0.4	2581
0.408	2565
0.416	2514
0.424	2433
0.432	2330
0.44	2211
0.448	2084
0.456	1954
0.464	1829
0.472	1714
0.48	1611
0.488	1524
0.496	1451
0.504	1395
0.512	1354
0.52	1325
0.528	1308
0.536	1300
0.544	1300
0.552	1305
0.56	1313
0.568	1321
0.576	1328
0.584	1332
0.592	1334
0.6	1335
0.608	1334
0.616	1329
0.624	1321
0.632	1308
0.64	1292
0.648	1273
0.656	1251
0.664	1230
0.672	1209
0.68	1187
0.688	1164
0.696	1139
0.704	1114
0.712	1090
0.72	1069
0.728	1055
0.736	1055
0.744	1077
0.752	1127
0.76	1212
0.768	1397
0.776	1652
0.784	1893
0.792	2130
0.8	2357
0.808	2567
0.816	2749
0.824	2893
0.832	2993
0.84	3047
0.848	3057
0.856	3026
0.864	2957
0.872	2858
0.88	2736
0.888	2599
0.896	2454
0.904	2307
0.912	2166
0.92	2035
0.928	1920
0.936	1823
0.944	1745
0.952	1684
0.96	1638
0.968	1606
0.976	1586
0.984	1576
0.992	1572
1	1570
1.008	1569
1.016	1568
1.024	1565
1.032	1561
1.04	1554
1.048	1544
1.056	1531
1.064	1516
1.072	1499
1.08	1480
1.088	1458
1.096	1434
1.104	1408
1.112	1379
1.12	1349
1.128	1320
1.136	1291
1.144	1263
1.152	1235
1.16	1208
1.168	1182
1.176	1161
1.184	1152
1.192	1161
1.2	1199
1.208	1273
1.216	1386
1.224	1537
1.232	1721
1.24	1926
1.248	2136
1.256	2335
1.264	2512
1.272	2655
1.28	2756
1.288	2811
1.296	2822
1.304	2789
1.312	2719
1.32	2620
1.328	2499
1.336	2364
1.344	2219
1.352	2073
1.36	1932
1.368	1800
1.376	1682
1.384	1581
1.392	1498
1.4	1430
1.408	1378
1.416	1342
1.424	1319
1.432	1306
1.44	1300
1.448	1299
1.456	1301
1.464	1304
1.472	1307
1.48	1310
1.488	1311
1.496	1312
1.504	1310
1.512	1304
1.52	1294
1.528	1280
1.536	1263
1.544	1244
1.552	1223
1.56	1202
1.568	1178
1.576	1153
1.584	1128
1.592	1102
1.6	1077
1.608	1054
1.616	1032
1.624	1013
1.632	1003
1.64	1007
1.648	1030
1.656	1079
1.664	1162
1.672	1279
1.68	1429
1.688	1604
1.696	1792
1.704	1982
1.712	2161
1.72	2317
1.728	2439
1.736	2520
1.744	2557
1.752	2554
1.76	2513
1.768	2440
1.776	2341
1.784	2224
1.792	2095
1.8	1964
1.808	1836
1.816	1715
1.824	1606
1.832	1511
1.84	1431
1.848	1367
1.856	1320
1.864	1287
1.872	1267
1.88	1256
1.888	1252
1.896	1254
1.904	1259
1.912	1266
1.92	1273
1.928	1280
1.936	1285
1.944	1289
1.952	1291
1.96	1290
1.968	1285
1.976	1277
1.984	1264
1.992	1246
2	1225
2.008	1203
2.016	1181
2.024	1159
2.032	1136
2.04	1112
2.048	1089
2.056	1068
2.064	1047
2.072	1029
2.08	1017
2.088	1017
2.096	1035
2.104	1077
2.112	1150
2.12	1257
2.128	1398
2.136	1565
2.144	1749
2.152	1939
2.16	2122
2.168	2283
2.176	2413
2.184	2505
2.192	2555
2.2	2563
2.208	2532
2.216	2466
2.224	2373
2.232	2260
2.24	2134
2.248	2005
2.256	1878.99999999999
2.264	1759.99999999999
2.272	1650.99999999999
2.28	1557
2.288	1480
2.296	1417
2.304	1370
2.312	1339
2.32	1321
2.328	1312
2.336	1310
2.344	1313
2.352	1319
2.36	1326
2.368	1333
2.376	1340
2.384	1344
2.392	1345
2.4	1342
2.408	1334
2.416	1324
2.424	1313
2.432	1300
2.44	1283
2.448	1265
2.456	1245
2.464	1224
2.472	1203
2.48	1183
2.488	1162
2.496	1139
2.504	1117
2.512	1097
2.52	1080
2.528	1069
2.536	1071
2.544	1092
2.552	1138
2.56	1215
2.568	1329
2.576	1478
2.584	1654
2.592	1849
2.6	2050
2.608	2241
2.616	2410
2.624	2545
2.632	2641
2.64	2694
2.648	2703
2.656	2672
2.664	2606
2.672	2513
2.68	2402
2.688	2278
2.696	2148
2.704	2019
2.712	1897
2.72	1786
2.728	1688
2.736	1606
2.744	1540
2.752	1489
2.76	1453
2.768	1430
2.776	1418
2.784	1415
2.792	1419
2.8	1428
2.808	1438
2.816	1470
2.824	1511
2.832	1532
2.84	1542
2.848	1546
2.856	1545
2.864	1541
2.872	1535
2.88	1527
2.888	1516
2.896	1502
2.904	1486
2.912	1468
2.92	1450
2.928	1433
2.936	1417
2.944	1400
2.952	1382
2.96	1365
2.968	1350
2.976	1340
2.984	1341
2.992	1360
3	1403
3.008	1477
3.016	1583
3.024	1720
3.032	1882
3.04	2059
3.048	2238
3.056	2403
3.064	2546
3.072	2658
3.08	2733
3.088	2771
3.096	2774
3.104	2745
3.112	2690
3.12	2613
3.128	2522
3.136	2421
3.144	2316
3.152	2210
3.16	2108
3.168	2015
3.176	1934
3.184	1863
3.192	1805
3.2	1760
3.208	1726
3.216	1703
3.224	1689
3.232	1681
3.24	1677
3.248	1676
3.256	1676
3.264	1677
3.272	1678
3.28	1677
3.288	1675
3.296	1671
3.304	1664
3.312	1654
3.32	1642
3.328	1628
3.336	1614
3.344	1599
3.352	1583
3.36	1565
3.368	1547
3.376	1530
3.384	1512
3.392	1492
3.4	1470
3.408	1448
3.416	1428
3.424	1412
3.432	1404
3.44	1411
3.448	1441
3.456	1499
3.464	1590
3.472	1715
3.48	1869
3.488	2042
3.496	2221
3.504	2392
3.512	2542
3.52	2662
3.528	2745
3.536	2790
3.544	2798
3.552	2773
3.56	2721
3.568	2647
3.576	2556
3.584	2454
3.592	2345
3.6	2234
3.608	2124
3.616	2020
3.624	1928
3.632	1848
3.64	1781
3.648	1728
3.656	1687
3.664	1658
3.672	1638
3.68	1626
3.688	1619
3.696	1616
3.704	1613
3.712	1610
3.72	1605
3.728	1598
3.736	1587
3.744	1574
3.752	1558
3.76	1541
3.768	1525
3.776	1509
3.784	1491
3.792	1471
3.8	1451
3.808	1431
3.816	1411
3.824	1391
3.832	1371
3.84	1352
3.848	1333
3.856	1315
3.864	1297
3.872	1278
3.88	1260
3.888	1249
3.896	1251
3.904	1273
3.912	1321
3.92	1398
3.928	1505
3.936	1640
3.944	1794
3.952	1957
3.96	2116
3.968	2258
3.976	2375
3.984	2461
3.992	2512
4	2526
4.008	2506
4.016	2458
4.024	2389
4.032	2303
4.04	2206
4.048	2105
4.056	2004
4.064	1905
4.072	1814
4.08	1732
4.088	1660
4.096	1601
4.104	1555
4.112	1520
4.12	1495
4.128	1479
4.136	1470
4.144	1466
4.152	1466
4.16	1468
4.168	1470
4.176	1471
4.184	1472
4.192	1470
4.2	1466
4.208	1460
4.216	1452
4.224	1443
4.232	1433
4.24	1422
4.248	1409
4.256	1395
4.264	1379
4.272	1362
4.28	1345
4.288	1329
4.296	1311
4.304	1291
4.312	1271
4.32	1251
4.328	1233
4.336	1220
4.344	1214
4.352	1219
4.36	1242
4.368	1287
4.376	1358
4.384	1455
4.392	1578
4.4	1720
4.408	1871
4.416	2022
4.424	2162
4.432	2280
4.44	2368
4.448	2424
4.456	2447
4.464	2437
4.472	2397
4.48	2335
4.488	2256
4.496	2165
4.504	2068.99999999999
4.512	1970.99999999999
4.52	1876.99999999999
4.528	1789.99999999999
4.536	1710.99999999999
4.544	1643.99999999999
4.552	1588.99999999999
4.56	1548
4.568	1519
4.576	1500
4.584	1489
4.592	1486
4.6	1487
4.608	1492
4.616	1498
4.624	1505
4.632	1513
4.64	1519
4.648	1521
4.656	1520
4.664	1516
4.672	1509
4.68	1500
4.688	1487
4.696	1472
4.704	1456
4.712	1440
4.72	1423
4.728	1406
4.736	1389
4.744	1372
4.752	1353
4.76	1335
4.768	1318
4.776	1302
4.784	1288
4.792	1278
4.8	1276
4.808	1287
4.816	1317
4.824	1370
4.832	1450
4.84	1558
4.848	1691
4.856	1842
4.864	2012
4.872	2188
4.88	2344
4.888	2472
4.896	2565
4.904	2620
4.912	2636
4.92	2616
4.928	2566
4.936	2492
4.944	2401
4.952	2301
4.96	2196
4.968	2090
4.976	1987
4.984	1891
4.992	1804
5	1728
5.008	1666
5.016	1619
5.024	1585
5.032	1562
5.04	1549
5.048	1545
5.056	1548
5.064	1554
5.072	1561
5.08	1568
5.088	1573
5.096	1577
5.104	1577
5.112	1573
5.12	1567
5.128	1557
5.136	1543
5.144	1528
5.152	1511
5.16	1493
5.168	1475
5.176	1456
5.184	1435
5.192	1417
5.2	1401
5.208	1385
5.216	1369
5.224	1353
5.232	1337
5.24	1321
5.248	1309
5.256	1307
5.264	1321
5.272	1358
5.28	1424
5.288	1525
5.296	1659
5.304	1821
5.312	2002
5.32	2187
5.328	2365
5.336	2521
5.344	2644
5.352	2730
5.36	2778
5.368	2789
5.376	2768
5.384	2718
5.392	2646
5.4	2558
5.408	2459
5.416	2356
5.424	2251
5.432	2149
5.44	2055
5.448	1971
5.456	1899
5.464	1840
5.472	1794
5.48	1763
5.488	1745
5.496	1736
5.504	1734
5.512	1737
5.52	1743
5.528	1749
5.536	1754
5.544	1757
5.552	1759
5.56	1758
5.568	1754
5.576	1748
5.584	1739
5.592	1727
5.6	1711
5.608	1694
5.616	1676
5.624	1657
5.632	1639
5.64	1621
5.648	1602
5.656	1583
5.664	1553
5.672	1533
5.68	1514
5.688	1486
5.696	1471
5.704	1466
5.712	1477
5.72	1516
5.728	1588
5.736	1696
5.744	1839
5.752	2011
5.76	2199
5.768	2390
5.776	2568
5.784	2721
5.792	2842
5.8	2924
5.808	2966
5.816	2955
5.824	2911
5.832	2844
5.84	2657
5.848	2549
5.856	2439
5.864	2234
5.872	2145
5.88	2067
5.888	1971
5.896	1924
5.904	1891
5.912	1870
5.92	1858
5.928	1854
5.936	1855
5.944	1859
5.952	1862
5.96	1863
5.968	1863
5.976	1860
5.984	1852
5.992	1841
6	1827
6.008	1809
6.016	1787
6.024	1763
6.032	1738
6.04	1711
6.048	1684
6.056	1655
6.064	1627
6.072	1601
6.08	1576
6.088	1551
6.096	1529
6.104	1507
6.112	1485
6.12	1463
6.128	1441
6.136	1424
6.144	1420
6.152	1437
6.16	1482
6.168	1561
6.176	1676
6.184	1821
6.192	1990
6.2	2169
6.208	2344
6.216	2501
6.224	2631
6.232	2725
6.24	2780
6.248	2796
6.256	2778
6.264	2731
6.272	2661
6.28	2574
6.288	2475
6.296	2369
6.304	2259
6.312	2150
6.32	2046
6.328	1952
6.336	1869
6.344	1799
6.352	1743
6.36	1699
6.368	1666
6.376	1644
6.384	1632
6.392	1626
6.4	1624
6.408	1625
6.416	1628
6.424	1630
6.432	1629
6.44	1626
6.448	1620
6.456	1610
6.464	1596
6.472	1580
6.48	1562
6.488	1542
6.496	1522
6.504	1501
6.512	1479
6.52	1455
6.528	1431
6.536	1408
6.544	1384
6.552	1362
6.56	1342
6.568	1323
6.576	1306
6.584	1290
6.592	1276
6.6	1267
6.608	1269
6.616	1286
6.624	1325.00000000001
6.632	1392.00000000001
6.64	1488.00000000001
6.648	1614.00000000002
6.656	1762.00000000002
6.664	1922
6.672	2084
6.68	2236
6.688	2367
6.696	2468
6.704	2533
6.712	2563
6.72	2559
6.728	2526
6.736	2468
6.744	2390
6.752	2299
6.76	2201
6.768	2100
6.776	2001
6.784	1908
6.792	1822
6.8	1746
6.808	1682
6.816	1631
6.824	1592
6.832	1562
6.84	1542
6.848	1531
6.856	1528
6.864	1530
6.872	1535
6.88	1517
6.888	1486
6.896	1471
6.904	1464
6.912	1458
6.92	1450
6.928	1440
6.936	1429
6.944	1418
6.952	1404
6.96	1387
6.968	1369
6.976	1349
6.984	1328
6.992	1307
7	1287
7.008	1267
7.016	1247
7.024	1227
7.032	1209
7.04	1193
7.048	1177
7.056	1162
7.064	1152
7.072	1153
7.08	1170
7.088	1210
7.096	1280
7.104	1379
7.112	1505
7.12	1653
7.128	1814
7.136	1976
7.144	2129
7.152	2263
7.16	2368
7.168	2439
7.176	2476
7.184	2479
7.192	2452
7.2	2397
7.208	2322
7.216	2234
7.224	2139
7.232	2041
7.24	1942
7.248	1846
7.256	1758
7.264	1679
7.272	1612
7.28	1557
7.288	1513
7.296	1479
7.304	1457
7.312	1445
7.32	1442
7.328	1446
7.336	1454
7.344	1464
7.352	1474
7.36	1482
7.368	1488
7.376	1491
7.384	1490
7.392	1486
7.4	1479
7.408	1467
7.416	1450
7.424	1431
7.432	1413
7.44	1393
7.448	1372
7.456	1352
7.464	1333
7.472	1314
7.48	1295
7.488	1278
7.496	1260
7.504	1240
7.512	1220
7.52	1204
7.528	1194
7.536	1194
7.544	1214
7.552	1261.00000000001
7.56	1340.00000000001
7.568	1451.00000000001
7.576	1592.00000000002
7.584	1755.00000000002
7.592	1929.00000000002
7.6	2102.00000000002
7.608	2262.00000000002
7.616	2400.00000000001
7.624	2508.00000000001
7.632	2581.00000000001
7.64	2618
7.648	2618
7.656	2586
7.664	2527.99999999999
7.672	2450.99999999999
7.68	2362
7.688	2265
7.696	2165
7.704	2065
7.712	1969
7.72	1881
7.728	1802
7.736	1731
7.744	1673
7.752	1628
7.76	1595
7.768	1576
7.776	1566
7.784	1564
7.792	1569
7.8	1579
7.808	1591
7.816	1602
7.824	1611
7.832	1619
7.84	1623
7.848	1623
7.856	1619
7.864	1611
7.872	1599
7.88	1583
7.888	1565
7.896	1546
7.904	1526
7.912	1507
7.92	1489
7.928	1470
7.936	1449
7.944	1430
7.952	1413
7.96	1396
7.968	1377
7.976	1359
7.984	1343
7.992	1334
8	1339
8.008	1368.00000000001
8.016	1427
8.024	1522.00000000002
8.032	1652
8.04	1812.00000000004
8.048	1992
8.056	2180.00000000004
8.064	2362
8.072	2525.00000000003
8.08	2659
8.088	2758.00000000002
8.096	2820
8.104	2844
8.112	2835
8.12	2797.99999999999
8.128	2735
8.136	2654.99999999998
8.144	2563
8.152	2463.99999999998
8.16	2362
8.168	2260.99999999998
8.176	2166
8.184	2077.99999999998
8.192	1999
8.2	1931
8.208	1875
8.216	1831
8.224	1800
8.232	1781
8.24	1772
8.248	1769
8.256	1770
8.264	1771
8.272	1773
8.28	1775
8.288	1776
8.296	1775
8.304	1773
8.312	1769
8.32	1761
8.328	1748
8.336	1731
8.344	1712
8.352	1690
8.36	1667
8.368	1645
8.376	1623
8.384	1600
8.392	1576
8.4	1553
8.408	1532
8.416	1511
8.424	1491
8.432	1470
8.44	1448
8.448	1430
8.456	1420
8.464	1421
8.472	1441
8.48	1489
8.488	1570
8.496	1686
8.504	1833
8.512	2001
8.52	2180
8.528	2355
8.536	2513
8.544	2646
8.552	2747
8.56	2812
8.568	2840
8.576	2835
8.584	2800
8.592	2738
8.6	2658
8.608	2565
8.616	2464
8.624	2360
8.632	2258
8.64	2159
8.648	2065
8.656	1979
8.664	1903
8.672	1839
8.68	1786
8.688	1743
8.696	1712
8.704	1690
8.712	1676
8.72	1668
8.728	1663
8.736	1659
8.744	1656
8.752	1653
8.76	1649
8.768	1642
8.776	1632
8.784	1620
8.792	1605
8.8	1587
8.808	1567
8.816	1546
8.824	1522
8.832	1497
8.84	1471
8.848	1444
8.856	1417
8.864	1390
8.872	1364
8.88	1339
8.888	1314
8.896	1290
8.904	1266
8.912	1240
8.92	1216
8.928	1186
8.936	1161
8.944	1165
8.952	1201
8.96	1273
8.968	1383
8.976	1528
8.984	1698
8.992	1882
9	2067
9.008	2238.00000000003
9.016	2382
9.024	2495.00000000002
9.032	2573
9.04	2613
9.048	2616
9.056	2586.99999999999
9.064	2532
9.072	2453.99999999998
9.08	2360
9.088	2255.99999999998
9.096	2149
9.104	2043.99999999998
9.112	1942
9.12	1846.99999999998
9.128	1761
9.136	1682.99999999998
9.144	1616
9.152	1559.99999999999
9.16	1516
9.168	1483.99999999999
9.176	1463
9.184	1452
9.192	1447
9.2	1447
9.208	1450
9.216	1454
9.224	1458
9.232	1461
9.24	1462
9.248	1459
9.256	1454
9.264	1445
9.272	1431
9.28	1414
9.288	1395
9.296	1374
9.304	1349
9.312	1322
9.32	1296
9.328	1273
9.336	1251
9.344	1229
9.352	1208
9.36	1187
9.368	1167
9.376	1148
9.384	1130
9.392	1114
9.4	1102
9.408	1098
9.416	1109
9.424	1143
9.432	1204
9.44	1296
9.448	1420
9.456	1568
9.464	1732
9.472	1903
9.48	2067
9.488	2213
9.496	2333
9.504	2422
9.512	2478
9.52	2501
9.528	2492
9.536	2453
9.544	2393
9.552	2315
9.56	2225
9.568	2130
9.576	2032
9.584	1935
9.592	1844
9.6	1760
9.608	1683
9.616	1615
9.624	1557
9.632	1510
9.64	1474
9.648	1448
9.656	1432
9.664	1426
9.672	1427
9.68	1432
9.688	1439
9.696	1447
9.704	1454
9.712	1459
9.72	1461
9.728	1460
9.736	1456
9.744	1450
9.752	1441
9.76	1428
9.768	1412
9.776	1395
9.784	1376
9.792	1353
9.8	1328
9.808	1302
9.816	1277
9.824	1253
9.832	1230
9.84	1208
9.848	1187
9.856	1167
9.864	1148
9.872	1134
9.88	1132
9.888	1147
9.896	1186
9.904	1255
9.912	1358
9.92	1492
9.928	1651
9.936	1826
9.944	2005
9.952	2178
9.96	2332
9.968	2459
9.976	2555
9.984	2616
9.992	2641
10	2634
10.008	2596.99999999999
10.016	2536
10.024	2455.99999999998
10.032	2364
10.04	2266.99999999998
10.048	2168
10.056	2069.99999999998
10.064	1978
10.072	1892.99999999998
10.08	1816
10.088	1746.99999999999
10.096	1688
10.104	1636.99999999999
10.112	1597
10.12	1566.99999999999
10.128	1547
10.136	1536
10.144	1532
10.152	1534
10.16	1539
10.168	1546
10.176	1552
10.184	1556
10.192	1558
10.2	1557
10.208	1552
10.216	1543
10.224	1532
10.232	1519
10.24	1505
10.248	1489
10.256	1472
10.264	1451
10.272	1428
10.28	1405
10.288	1385
10.296	1366
10.304	1346
10.312	1326
10.32	1306
10.328	1287
10.336	1273
10.344	1266
10.352	1270
10.36	1294
10.368	1346
10.376	1431
10.384	1552
10.392	1704
10.4	1879
10.408	2066
10.416	2252
10.424	2427
10.432	2581
10.44	2705
10.448	2796
10.456	2852
10.464	2872
10.472	2860
10.48	2820
10.488	2757
10.496	2678
10.504	2586
10.512	2486
10.52	2384
10.528	2285
10.536	2191
10.544	2103
10.552	2023
10.56	1952
10.568	1890
10.576	1840
10.584	1803
10.592	1777
10.6	1760
10.608	1751
10.616	1749
10.624	1750
10.632	1752
10.64	1754
10.648	1756
10.656	1758
10.664	1758
10.672	1756
10.68	1752
10.688	1744
10.696	1732
10.704	1715
10.712	1694
10.72	1670
10.728	1643
10.736	1615
10.744	1587
10.752	1560
10.76	1533
10.768	1507
10.776	1482
10.784	1456
10.792	1430
10.8	1406
10.808	1385
10.816	1371
10.824	1370
10.832	1389
10.84	1437
10.848	1518
10.856	1635
10.864	1788
10.872	1965
10.88	2155
10.888	2345
10.896	2522
10.904	2676
10.912	2800
10.92	2889
10.928	2942
10.936	2957
10.944	2940
10.952	2896
10.96	2829
10.968	2745
10.976	2661
10.984	2575
10.992	2477
11	2374
11.008	2271.99999999998
11.016	2177
11.024	2090.99999999998
11.032	2014
11.04	1946.99999999999
11.048	1892
11.056	1846.99999999999
11.064	1813
11.072	1790
11.08	1776
11.088	1768
11.096	1765
11.104	1766
11.112	1767
11.12	1768
11.128	1766
11.136	1761
11.144	1752
11.152	1736
11.16	1716
11.168	1692.99999999999
11.176	1667
11.184	1637.99999999999
11.192	1606
11.2	1571.99999999999
11.208	1537
11.216	1501.99999999999
11.224	1466
11.232	1430.99999999999
11.24	1399
11.248	1368.99999999999
11.256	1340
11.264	1312
11.272	1285
11.28	1258
11.288	1235
11.296	1223
11.304	1226
11.312	1252
11.32	1309
11.328	1403
11.336	1533
11.344	1693
11.352	1874
11.36	2063
11.368	2249
11.376	2419
11.384	2562
11.392	2671
11.4	2745
11.408	2783
11.416	2785
11.424	2756
11.432	2701
11.44	2625
11.448	2534
11.456	2435
11.464	2333
11.472	2228
11.48	2123
11.488	2024
11.496	1932
11.504	1848
11.512	1773
11.52	1710
11.528	1659
11.536	1621
11.544	1593
11.552	1573
11.56	1561
11.568	1555
11.576	1552
11.584	1550
11.592	1549
11.6	1548
11.608	1545
11.616	1541
11.624	1533
11.632	1522
11.64	1510
11.648	1496
11.656	1478
11.664	1458
11.672	1436
11.68	1411
11.688	1386
11.696	1360
11.704	1333
11.712	1305
11.72	1277
11.728	1251
11.736	1226
11.744	1202
11.752	1180
11.76	1159
11.768	1142
11.776	1132
11.784	1134
11.792	1156
11.8	1205
11.808	1286
11.816	1398
11.824	1538
11.832	1699
11.84	1870
11.848	2041
11.856	2203
11.864	2344
11.872	2457
11.88	2539
11.888	2587
11.896	2602
11.904	2588
11.912	2548
11.92	2486
11.928	2410
11.936	2324
11.944	2233
11.952	2141
11.96	2049
11.968	1960
11.976	1877
11.984	1802
11.992	1732
12	1670
12.008	1617.99999999999
12.016	1576
12.024	1544.99999999999
12.032	1525
12.04	1512
12.048	1504
12.056	1501
12.064	1502
12.072	1504
12.08	1505
12.088	1505
12.096	1503
12.104	1499
12.112	1493
12.12	1485
12.128	1475
12.136	1462
12.144	1447
12.152	1430
12.16	1408
12.168	1384.99999999999
12.176	1363
12.184	1341
12.192	1319
12.2	1295.99999999999
12.208	1273
12.216	1252
12.224	1232
12.232	1213
12.24	1195
12.248	1181
12.256	1175
12.264	1183
12.272	1213
12.28	1269.00000000002
12.288	1355
12.296	1473
12.304	1619
12.312	1785
12.32	1960
12.328	2131
12.336	2290
12.344	2427
12.352	2537
12.36	2617
12.368	2666
12.376	2683
12.384	2671
12.392	2634
12.4	2575
12.408	2499
12.416	2411
12.424	2319
12.432	2225
12.44	2131
12.448	2040
12.456	1953
12.464	1876
12.472	1807
12.48	1746
12.488	1694
12.496	1652
12.504	1620
12.512	1598
12.52	1584
12.528	1576
12.536	1573
12.544	1575
12.552	1579
12.56	1583
12.568	1587
12.576	1589
12.584	1588
12.592	1583
12.6	1574
12.608	1560
12.616	1543
12.624	1525
12.632	1506
12.64	1486
12.648	1465
12.656	1443
12.664	1420
12.672	1395
12.68	1371
12.688	1349
12.696	1327
12.704	1306
12.712	1286
12.72	1268
12.728	1257
12.736	1261
12.744	1288
12.752	1342
12.76	1429
12.768	1553
12.776	1707
12.784	1883
12.792	2072
12.8	2262
12.808	2442
12.816	2601
12.824	2732
12.832	2832
12.84	2900
12.848	2934
12.856	2936
12.864	2910
12.872	2860
12.88	2789
12.888	2704
12.896	2609
12.904	2510
12.912	2411
12.92	2316
12.928	2226
12.936	2143
12.944	2068
12.952	2000
12.96	1942
12.968	1896
12.976	1860
12.984	1833
12.992	1814
13	1801
13.008	1795
13.016	1792
13.024	1784
13.032	1774
13.04	1768
13.048	1762
13.056	1755
13.064	1748
13.072	1738
13.08	1725
13.088	1709
13.096	1689
13.104	1665.99999999999
13.112	1639
13.12	1611.99999999999
13.128	1586
13.136	1558.99999999999
13.144	1532
13.152	1504.99999999999
13.16	1478
13.168	1448.99999999999
13.176	1421
13.184	1393.99999999999
13.192	1368
13.2	1350
13.208	1347
13.216	1368.00000000001
13.224	1421
13.232	1513.00000000002
13.24	1645
13.248	1813.00000000004
13.256	2009
13.264	2222.00000000005
13.272	2438
13.28	2645.00000000004
13.288	2832
13.296	2988.00000000003
13.304	3108
13.312	3187.00000000001
13.32	3227
13.328	3233
13.336	3205
13.344	3147
13.352	3069
13.36	2975
13.368	2868
13.376	2756
13.384	2645
13.392	2536
13.4	2429
13.408	2329
13.416	2237
13.424	2155
13.432	2084
13.44	2023
13.448	1975
13.456	1939
13.464	1914
13.472	1897
13.48	1887
13.488	1881
13.496	1875
13.504	1868
13.512	1860
13.52	1850
13.528	1836
13.536	1819
13.544	1799
13.552	1776
13.56	1752
13.568	1726
13.576	1697
13.584	1666
13.592	1633
13.6	1601
13.608	1568
13.616	1534
13.624	1499
13.632	1465
13.64	1432
13.648	1397
13.656	1361
13.664	1326
13.672	1295
13.68	1273
13.688	1267
13.696	1285
13.704	1336
13.712	1426
13.72	1556
13.728	1722
13.736	1916
13.744	2125
13.752	2336
13.76	2534
13.768	2708
13.776	2851
13.784	2960
13.792	3032
13.8	3067
13.808	3066
13.816	3031
13.824	2970
13.832	2888
13.84	2789
13.848	2678
13.856	2559
13.864	2438
13.872	2320
13.88	2208
13.888	2104
13.896	2010
13.904	1926
13.912	1853
13.92	1794
13.928	1749
13.936	1716
13.944	1690
13.952	1671
13.96	1658
13.968	1648
13.976	1642
13.984	1638
13.992	1635
14	1631
14.008	1625
14.016	1617
14.024	1606
14.032	1592
14.04	1575
14.048	1556
14.056	1531.99999999999
14.064	1505
14.072	1477.99999999999
14.08	1449
14.088	1419.99999999999
14.096	1390
14.104	1359.99999999999
14.112	1332
14.12	1305.99999999999
14.128	1282
14.136	1257.99999999999
14.144	1235
14.152	1215
14.16	1198
14.168	1191
14.176	1204
14.184	1242.00000000001
14.192	1310
14.2	1411.00000000003
14.208	1545
14.216	1707.00000000004
14.224	1888
14.232	2076.00000000004
14.24	2263
14.248	2437.00000000004
14.256	2588
14.264	2710.00000000002
14.272	2798
14.28	2851.00000000001
14.288	2868
14.296	2850.99999999999
14.304	2807
14.312	2740.99999999998
14.32	2659
14.328	2564.99999999998
14.336	2464
14.344	2358
14.352	2253
14.36	2153
14.368	2056
14.376	1965
14.384	1884
14.392	1813
14.4	1754
14.408	1705
14.416	1667
14.424	1637
14.432	1615
14.44	1602
14.448	1595
14.456	1592
14.464	1590
14.472	1589
14.48	1589
14.488	1589
14.496	1588
14.504	1583
14.512	1574
14.52	1562
14.528	1548
14.536	1531
14.544	1512
14.552	1489
14.56	1467
14.568	1445
14.576	1421
14.584	1397
14.592	1373
14.6	1349
14.608	1324
14.616	1300
14.624	1279
14.632	1261
14.64	1249
14.648	1248
14.656	1263
14.664	1303
14.672	1373
14.68	1475
14.688	1609
14.696	1771
14.704	1951
14.712	2137
14.72	2320
14.728	2488
14.736	2632
14.744	2748
14.752	2832
14.76	2882
14.768	2899
14.776	2884
14.784	2840
14.792	2774
14.8	2692
14.808	2598
14.816	2496
14.824	2391
14.832	2287
14.84	2187
14.848	2093
14.856	2007
14.864	1929
14.872	1860
14.88	1802
14.888	1755
14.896	1719
14.904	1692
14.912	1672
14.92	1660
14.928	1652
14.936	1646
14.944	1645
14.952	1647
14.96	1646
14.968	1643
14.976	1641
14.984	1637
14.992	1629
15	1616
15.008	1600
15.016	1583
15.024	1564
15.032	1542
15.04	1518.99999999999
15.048	1494
15.056	1468.99999999999
15.064	1448
15.072	1385.99999999998
15.08	1303
15.088	1249.99999999999
15.096	1211
15.104	1180.99999999999
15.112	1159
15.12	1149
15.128	1158
15.136	1192.00000000001
15.144	1259
15.152	1362.00000000003
15.16	1497
15.168	1661.00000000004
15.176	1846
15.184	2043.00000000004
15.192	2242
15.2	2430.00000000004
15.208	2598
15.216	2738.00000000003
15.224	2844
15.232	2913.00000000001
15.24	2945
15.248	2943
15.256	2911
15.264	2853.99999999999
15.272	2777
15.28	2684.99999999998
15.288	2583
15.296	2477.99999999998
15.304	2372
15.312	2267.99999999998
15.32	2169
15.328	2077.99999999998
15.336	1995
15.344	1922.99999999999
15.352	1863
15.36	1815
15.368	1778
15.376	1752
15.384	1736
15.392	1726
15.4	1723
15.408	1724
15.416	1724
15.424	1724
15.432	1722
15.44	1718
15.448	1713
15.456	1706
15.464	1696
15.472	1684
15.48	1669
15.488	1653
15.496	1634
15.504	1610
15.512	1585
15.52	1561
15.528	1536
15.536	1509
15.544	1482
15.552	1455
15.56	1430
15.568	1405
15.576	1382
15.584	1364
15.592	1357
15.6	1368
15.608	1406
15.616	1478
15.624	1586
15.632	1731
15.64	1909
15.648	2108
15.656	2314
15.664	2517
15.672	2707
15.68	2873
15.688	3009
15.696	3111
15.704	3175
15.712	3202
15.72	3196
15.728	3158
15.736	3093
15.744	3009
15.752	2909
15.76	2799
15.768	2684
15.776	2568
15.784	2456
15.792	2348
15.8	2247
15.808	2156
15.816	2075
15.824	2005
15.832	1946
15.84	1898
15.848	1859
15.856	1831
15.864	1811
15.872	1796
15.88	1785
15.888	1777
15.896	1770
15.904	1764
15.912	1758
15.92	1748
15.928	1734
15.936	1718
15.944	1701
15.952	1683
15.96	1660
15.968	1633
15.976	1606
15.984	1577
15.992	1546
16	1496
16.008	1463
16.016	1431.99999999998
16.024	1373
16.032	1343
16.04	1315
16.048	1286
16.056	1281
16.064	1300
16.072	1348
16.08	1429.00000000004
16.088	1548
16.096	1703
16.104	1885
16.112	2082.00000000009
16.12	2283
16.128	2478
16.136	2654
16.144	2801.00000000006
16.152	2914
16.16	2989
16.168	3026
16.176	3010.99999999999
16.184	2965
16.192	2894
16.2	2702
16.208	2590.99999999995
16.216	2476
16.224	2304
16.232	2194
16.24	2089.99999999996
16.248	1996
16.256	1913
16.264	1840
16.272	1778.99999999998
16.28	1731
16.288	1693
16.296	1666
16.304	1644.99999999999
16.312	1629
16.32	1617
16.328	1607
16.336	1598
16.344	1588
16.352	1578
16.36	1566
16.368	1549.99999999999
16.376	1533
16.384	1515
16.392	1494
16.4	1469
16.408	1445
16.416	1423
16.424	1398
16.432	1370
16.44	1342
16.448	1315
16.456	1290
16.464	1265
16.472	1241
16.48	1217
16.488	1194
16.496	1171
16.504	1151
16.512	1138
16.52	1139
16.528	1161
16.536	1207
16.544	1284
16.552	1392
16.56	1529
16.568	1691
16.576	1868
16.584	2049
16.592	2224
16.6	2383
16.608	2520
16.616	2628
16.624	2704
16.632	2746
16.64	2755
16.648	2734
16.656	2687
16.664	2619
16.672	2533
16.68	2435
16.688	2331
16.696	2225
16.704	2121
16.712	2021
16.72	1926
16.728	1839
16.736	1763
16.744	1696
16.752	1640
16.76	1597
16.768	1564
16.776	1539
16.784	1521
16.792	1508
16.8	1500
16.808	1496
16.816	1494
16.824	1493
16.832	1493
16.84	1492
16.848	1487
16.856	1479
16.864	1468
16.872	1452
16.88	1435
16.888	1419
16.896	1400
16.904	1379
16.912	1357
16.92	1333
16.928	1310
16.936	1288
16.944	1268
16.952	1250
16.96	1233
16.968	1216
16.976	1200
16.984	1189
16.992	1186
17	1197
17.008	1228
17.016	1283.00000000003
17.024	1367
17.032	1477
17.04	1611
17.048	1765.00000000007
17.056	1929
17.064	2093
17.072	2250
17.08	2391.00000000004
17.088	2466
17.096	2490
17.104	2515
17.112	2526
17.12	2514
17.128	2480
17.136	2427
17.144	2358.99999999997
17.152	2281
17.16	2195
17.168	2105
17.176	2014.99999999996
17.184	1926
17.192	1839
17.2	1759
17.208	1685.99999999997
17.216	1621
17.224	1568
17.232	1525
17.24	1492.99999999999
17.248	1471
17.256	1457
17.264	1449
17.272	1446
17.28	1446
17.288	1447
17.296	1449
17.304	1451
17.312	1451
17.32	1449
17.328	1444
17.336	1436
17.344	1426
17.352	1413
17.36	1397
17.368	1378.99999999999
17.376	1360
17.384	1339
17.392	1317
17.4	1293.99999999999
17.408	1271
17.416	1250
17.424	1230
17.432	1211
17.44	1194
17.448	1177
17.456	1165
17.464	1164
17.472	1179
17.48	1215
17.488	1277
17.496	1367
17.504	1483
17.512	1623
17.52	1782
17.528	1950
17.536	2117
17.544	2275
17.552	2414
17.56	2528
17.568	2614
17.576	2668
17.584	2690
17.592	2682
17.6	2647
17.608	2590
17.616	2514
17.624	2425
17.632	2328
17.64	2227
17.648	2128
17.656	2032
17.664	1941
17.672	1858
17.68	1785
17.688	1722
17.696	1670
17.704	1631
17.712	1604
17.72	1587
17.728	1578
17.736	1573
17.744	1572
17.752	1573
17.76	1576
17.768	1578
17.776	1579
17.784	1578
17.792	1573
17.8	1566
17.808	1554
17.816	1539
17.824	1524
17.832	1507
17.84	1490
17.848	1472
17.856	1453
17.864	1434
17.872	1414
17.88	1394
17.888	1376
17.896	1360
17.904	1345
17.912	1332
17.92	1322
17.928	1320
17.936	1331
17.944	1362
17.952	1417
17.96	1501
17.968	1614
17.976	1754
17.984	1916
17.992	2090
18	2267
18.008	2437
18.016	2589.00000000006
18.024	2717
18.032	2817
18.04	2886
18.048	2922
18.056	2927
18.064	2903
18.072	2854
18.08	2784.99999999997
18.088	2700
18.096	2603
18.104	2502
18.112	2396.99999999995
18.12	2293
18.128	2193
18.136	2100
18.144	2015.99999999997
18.152	1943
18.16	1883
18.168	1833
18.176	1793.99999999999
18.184	1766
18.192	1746
18.2	1732
18.208	1723
18.216	1717
18.224	1712
18.232	1706
18.24	1699
18.248	1690
18.256	1678
18.264	1666
18.272	1651.99999999999
18.28	1637
18.288	1623
18.296	1607
18.304	1588.99999999999
18.312	1568
18.32	1544
18.328	1519
18.336	1493.99999999999
18.344	1468
18.352	1441
18.36	1414
18.368	1387.99999999999
18.376	1364
18.384	1343
18.392	1330
18.4	1327
18.408	1342
18.416	1381
18.424	1450
18.432	1550.00000000005
18.44	1681
18.448	1839
18.456	2014
18.464	2194
18.472	2369
18.48	2529
18.488	2665
18.496	2773
18.504	2849
18.512	2891
18.52	2901
18.528	2882
18.536	2836
18.544	2767
18.552	2682
18.56	2584
18.568	2478
18.576	2370
18.584	2262
18.592	2159
18.6	2064
18.608	1975
18.616	1896
18.624	1828
18.632	1772
18.64	1726
18.648	1690
18.656	1663
18.664	1644
18.672	1631
18.68	1623
18.688	1616
18.696	1608
18.704	1599
18.712	1589
18.72	1578
18.728	1565
18.736	1549
18.744	1529
18.752	1507
18.76	1484
18.768	1458
18.776	1431
18.784	1404
18.792	1376
18.8	1351
18.808	1328
18.816	1305
18.824	1284
18.832	1262
18.84	1241
18.848	1223
18.856	1208
18.864	1198
18.872	1198
18.88	1212
18.888	1245
18.896	1302
18.904	1383
18.912	1491
18.92	1623
18.928	1772
18.936	1930
18.944	2088
18.952	2235
18.96	2364
18.968	2467
18.976	2542
18.984	2587
18.992	2602
19	2588
19.008	2549
19.016	2489.99999999997
19.024	2414
19.032	2324
19.04	2226
19.048	2125.99999999996
19.056	2027
19.064	1932
19.072	1843
19.08	1763.99999999997
19.088	1695
19.096	1637
19.104	1588
19.112	1547.99999999998
19.12	1518
19.128	1497
19.136	1474
19.144	1450.99999999999
19.152	1440
19.16	1434
19.168	1430
19.176	1425
19.184	1419
19.192	1412
19.2	1403
19.208	1392.99999999999
19.216	1380
19.224	1364
19.232	1346
19.24	1325.99999999999
19.248	1307
19.256	1289
19.264	1269
19.272	1248.99999999999
19.28	1229
19.288	1206
19.296	1182
19.304	1158.99999999999
19.312	1138
19.32	1119
19.328	1105
19.336	1098
19.344	1101
19.352	1121
19.36	1159
19.368	1217.00000000003
19.376	1299
19.384	1405
19.392	1532
19.4	1674.00000000006
19.408	1824
19.416	1973
19.424	2113
19.432	2236.00000000005
19.44	2334
19.448	2403
19.456	2440
19.464	2445
19.472	2423
19.48	2375
19.488	2306
19.496	2221
19.504	2128
19.512	2030
19.52	1931
19.528	1837
19.536	1748
19.544	1666
19.552	1594
19.56	1532
19.568	1482
19.576	1442
19.584	1412
19.592	1392
19.6	1378
19.608	1369
19.616	1367
19.624	1369
19.632	1371
19.64	1373
19.648	1375
19.656	1375
19.664	1373
19.672	1368
19.68	1359
19.688	1348
19.696	1334
19.704	1319
19.712	1304
19.72	1287
19.728	1269
19.736	1250
19.744	1228
19.752	1204
19.76	1181
19.768	1159
19.776	1139
19.784	1122
19.792	1108
19.8	1101
19.808	1106
19.816	1126
19.824	1166
19.832	1231
19.84	1322
19.848	1439
19.856	1581
19.864	1739
19.872	1904
19.88	2067
19.888	2220
19.896	2351
19.904	2457
19.912	2532
19.92	2572
19.928	2582
19.936	2562
19.944	2514
19.952	2443
19.96	2356
19.968	2258
19.976	2154
19.984	2048
19.992	1945
20	1850
20.008	1763
20.016	1686.99999999997
20.024	1621
20.032	1566
20.04	1521
20.048	1486.99999999999
20.056	1465
20.064	1454
20.072	1450
20.08	1450
20.088	1453
20.096	1457
20.104	1459
20.112	1460
20.12	1457
20.128	1452
20.136	1446
20.144	1439
20.152	1430
20.16	1418
20.168	1404
20.176	1386.99999999999
20.184	1369
20.192	1348
20.2	1324
20.208	1299.99999999999
20.216	1276
20.224	1253
20.232	1232
20.24	1210.99999999999
20.248	1193
20.256	1180
20.264	1176
20.272	1189.00000000001
20.28	1225
20.288	1288
20.296	1380
20.304	1502.00000000006
20.312	1652
20.32	1822
20.328	2004
20.336	2188.00000000008
20.344	2362
20.352	2519
20.36	2652
20.368	2752.00000000004
20.376	2817
20.384	2847
20.392	2843
20.4	2807.99999999998
20.408	2746
20.416	2663
20.424	2565
20.432	2456.99999999995
20.44	2344
20.448	2231
20.456	2124
20.464	2024.99999999996
20.472	1938
20.48	1862
20.488	1798
20.496	1747
20.504	1708
20.512	1678
20.52	1656
20.528	1640
20.536	1629
20.544	1622
20.552	1616
20.56	1611
20.568	1605
20.576	1597
20.584	1589
20.592	1579
20.6	1568
20.608	1555
20.616	1541
20.624	1526
20.632	1507
20.64	1486
20.648	1465
20.656	1445
20.664	1423
20.672	1399
20.68	1374
20.688	1348
20.696	1322
20.704	1298
20.712	1278
20.72	1266
20.728	1268
20.736	1291
20.744	1342
20.752	1423
20.76	1538
20.768	1685
20.776	1858
20.784	2046
20.792	2238
20.8	2423
20.808	2593
20.816	2737
20.824	2848
20.832	2924
20.84	2966
20.848	2973
20.856	2946
20.864	2889
20.872	2808
20.88	2708
20.888	2596
20.896	2477
20.904	2357
20.912	2241
20.92	2133
20.928	2035
20.936	1949
20.944	1875
20.952	1814
20.96	1765
20.968	1728
20.976	1701
20.984	1682
20.992	1668
21	1659
21.008	1653
21.016	1647
21.024	1638
21.032	1626
21.04	1613
21.048	1599.99999999999
21.056	1585
21.064	1568
21.072	1549
21.08	1527.99999999999
21.088	1503
21.096	1477
21.104	1449
21.112	1417.99999999999
21.12	1383
21.128	1348
21.136	1314
21.144	1280.99999999999
21.152	1249
21.16	1218
21.168	1190
21.176	1169
21.184	1174
21.192	1201
21.2	1237
21.208	1290.00000000003
21.216	1366
21.224	1469
21.232	1598
21.24	1748.00000000007
21.248	1912
21.256	2079
21.264	2241
21.272	2387.00000000006
21.28	2510
21.288	2603
21.296	2662
21.304	2685
21.312	2676
21.32	2638
21.328	2574
21.336	2489.99999999996
21.344	2392
21.352	2285
21.36	2175
21.368	2064.99999999995
21.376	1958
21.384	1857
21.392	1767
21.4	1687.99999999997
21.408	1619
21.416	1563
21.424	1519
21.432	1484.99999999999
21.44	1460
21.448	1443
21.456	1434
21.464	1429
21.472	1427
21.48	1426
21.488	1425
21.496	1424
21.504	1420
21.512	1414
21.52	1405
21.528	1393
21.536	1379
21.544	1363
21.552	1345
21.56	1326
21.568	1305
21.576	1283
21.584	1259
21.592	1235
21.6	1211
21.608	1187
21.616	1165
21.624	1144
21.632	1125
21.64	1112
21.648	1105
21.656	1110
21.664	1130
21.672	1169
21.68	1232
21.688	1319
21.696	1430
21.704	1559
21.712	1702
21.72	1850
21.728	1994
21.736	2127
21.744	2242
21.752	2331
21.76	2390
21.768	2414
21.776	2406
21.784	2370
21.792	2309
21.8	2228
21.808	2132
21.816	2029
21.824	1923
21.832	1817
21.84	1718
21.848	1627
21.856	1546
21.864	1476
21.872	1420
21.88	1377
21.888	1345
21.896	1323
21.904	1310
21.912	1303
21.92	1302
21.928	1305
21.936	1311
21.944	1317
21.952	1322
21.96	1325
21.968	1327
21.976	1326
21.984	1321
21.992	1314
22	1304
22.008	1291
22.016	1274.99999999999
22.024	1255
22.032	1233
22.04	1212
22.048	1189.99999999999
22.056	1168
22.064	1146
22.072	1124
22.08	1104.99999999999
22.088	1091
22.096	1082
22.104	1080
22.112	1087
22.12	1108
22.128	1147
22.136	1210
22.144	1299.00000000004
22.152	1413
22.16	1548
22.168	1698
22.176	1856.00000000007
22.184	2014
22.192	2162
22.2	2290
22.208	2391.00000000004
22.216	2460
22.224	2493
22.232	2492
22.24	2458.99999999998
22.248	2400
22.256	2318
22.264	2220
22.272	2111.99999999995
22.28	2000
22.288	1890
22.296	1786
22.304	1690.99999999996
22.312	1607
22.32	1535
22.328	1477
22.336	1431.99999999998
22.344	1398
22.352	1376
22.36	1365
22.368	1362
22.376	1362
22.384	1365
22.392	1369
22.4	1372
22.408	1373
22.416	1372
22.424	1368
22.432	1362
22.44	1355
22.448	1347
22.456	1336
22.464	1321.99999999999
22.472	1304
22.48	1282
22.488	1258
22.496	1232.99999999999
22.504	1209
22.512	1186
22.52	1165
22.528	1146
22.536	1128
22.544	1114
22.552	1106
22.56	1106
22.568	1119
22.576	1153
22.584	1211
22.592	1296
22.6	1410
22.608	1551
22.616	1714
22.624	1889
22.632	2068
22.64	2239
22.648	2393
22.656	2522
22.664	2618
22.672	2679
22.68	2705
22.688	2697
22.696	2656
22.704	2586
22.712	2495
22.72	2390
22.728	2275
22.736	2157
22.744	2042
22.752	1932
22.76	1832
22.768	1744
22.776	1670
22.784	1610
22.792	1561
22.8	1526
22.808	1504
22.816	1493
22.824	1490
22.832	1491
22.84	1495
22.848	1499
22.856	1502
22.864	1503
22.872	1503
22.88	1500
22.888	1494
22.896	1487
22.904	1478
22.912	1464
22.92	1446
22.928	1424
22.936	1400
22.944	1375
22.952	1350
22.96	1325
22.968	1300
22.976	1275
22.984	1253
22.992	1234
23	1220
23.008	1214
23.016	1221.00000000001
23.024	1247
23.032	1296
23.04	1375
23.048	1489.00000000006
23.056	1634
23.064	1805
23.072	1995
23.08	2191.00000000009
23.088	2382
23.096	2556
23.104	2704
23.112	2818.00000000004
23.12	2893
23.128	2931
23.136	2932
23.144	2897.99999999998
23.152	2834
23.16	2744
23.168	2635
23.176	2514.99999999995
23.184	2390
23.192	2265
23.2	2146
23.208	2035.99999999995
23.216	1938
23.224	1854
23.232	1795
23.24	1755.99999999998
23.248	1721
23.256	1694
23.264	1676
23.272	1666
23.28	1662
23.288	1662
23.296	1664
23.304	1667
23.312	1670
23.32	1670
23.328	1667
23.336	1661
23.344	1650
23.352	1633
23.36	1613
23.368	1590.99999999999
23.376	1569
23.384	1547
23.392	1524
23.4	1499.99999999999
23.408	1476
23.416	1452
23.424	1429
23.432	1407.99999999999
23.44	1386
23.448	1365
23.456	1350
23.464	1343
23.472	1349
23.48	1374
23.488	1424
23.496	1505.00000000004
23.504	1618
23.512	1759
23.52	1923
23.528	2101.00000000008
23.536	2283
23.544	2455
23.552	2606
23.56	2729
23.568	2820
23.576	2874
23.584	2892
23.592	2874
23.6	2823
23.608	2746
23.616	2646
23.624	2530
23.632	2404
23.64	2274
23.648	2148
23.656	2028
23.664	1918
23.672	1822
23.68	1740
23.688	1671
23.696	1616
23.704	1574
23.712	1543
23.72	1522
23.728	1507
23.736	1498
23.744	1492
23.752	1487
23.76	1483
23.768	1479
23.776	1474
23.784	1466
23.792	1455
23.8	1442
23.808	1426
23.816	1407
23.824	1386
23.832	1362
23.84	1336
23.848	1310
23.856	1285
23.864	1259
23.872	1232
23.88	1206
23.888	1182
23.896	1160
23.904	1140
23.912	1124
23.92	1115
23.928	1119
23.936	1140
23.944	1183
23.952	1253
23.96	1350
23.968	1474
23.976	1620
23.984	1782
23.992	1950
24	2112
24.008	2259
24.016	2383.00000000005
24.024	2476
24.032	2532
24.04	2551
24.048	2533.99999999999
24.056	2484
24.064	2409
24.072	2315
24.08	2206.99999999995
24.088	2091
24.096	1973
24.104	1858
24.112	1747.99999999995
24.12	1649
24.128	1564
24.136	1492
24.144	1435.99999999998
24.152	1393
24.16	1362
24.168	1341
24.176	1328
24.184	1320
24.192	1317
24.2	1317
24.208	1317
24.216	1318
24.224	1318
24.232	1317
24.24	1316
24.248	1312
24.256	1306
24.264	1298
24.272	1287.99999999999
24.28	1275
24.288	1258
24.296	1237
24.304	1214.99999999999
24.312	1192
24.32	1168
24.328	1144
24.336	1120.99999999999
24.344	1100
24.352	1080
24.36	1064
24.368	1054
24.376	1052
24.384	1061
24.392	1087
24.4	1135.00000000003
24.408	1209
24.416	1310
24.424	1436
24.432	1582.00000000007
24.44	1741
24.448	1905
24.456	2063
24.464	2205.00000000006
24.472	2320
24.48	2402
24.488	2448
24.496	2457
24.504	2432
24.512	2375
24.52	2292
24.528	2188.99999999995
24.536	2075
24.544	1956
24.552	1838
24.56	1723.99999999995
24.568	1619
24.576	1529
24.584	1454
24.592	1394
24.6	1349
24.608	1319
24.616	1300
24.624	1289
24.632	1286
24.64	1287
24.648	1291
24.656	1295
24.664	1299
24.672	1303
24.68	1306
24.688	1305
24.696	1302
24.704	1297
24.712	1291
24.72	1282
24.728	1269
24.736	1253
24.744	1233
24.752	1211
24.76	1189
24.768	1168
24.776	1146
24.784	1124
24.792	1104
24.8	1086
24.808	1070
24.816	1058
24.824	1053
24.832	1060
24.84	1084
24.848	1130
24.856	1203
24.864	1306
24.872	1437
24.88	1593
24.888	1765
24.896	1942
24.904	2113
24.912	2269
24.92	2398
24.928	2493
24.936	2550
24.944	2567
24.952	2546
24.96	2490
24.968	2408
24.976	2304
24.984	2185
24.992	2059
25	1932
25.008	1810
25.016	1696.99999999995
25.024	1598
25.032	1514
25.04	1446
25.048	1392.99999999998
25.056	1354
25.064	1327
25.072	1312
25.08	1305
25.088	1304
25.096	1306
25.104	1311
25.112	1318
25.12	1324
25.128	1328
25.136	1329
25.144	1327
25.152	1321
25.16	1312
25.168	1300
25.176	1285.99999999999
25.184	1269
25.192	1250
25.2	1229
25.208	1207.99999999999
25.216	1187
25.224	1167
25.232	1147
25.24	1127.99999999999
25.248	1110
25.256	1094
25.264	1081
25.272	1076
25.28	1110
25.288	1176
25.296	1248
25.304	1342.00000000005
25.312	1463
25.32	1611
25.328	1781
25.336	1963.00000000008
25.344	2148
25.352	2324
25.36	2480
25.368	2607.00000000005
25.376	2700
25.384	2756
25.392	2773
25.4	2752.99999999999
25.408	2700
25.416	2619
25.424	2517
25.432	2401.99999999995
25.44	2281
25.448	2159
25.456	2041
25.464	1930.99999999995
25.472	1832
25.48	1746
25.488	1676
25.496	1620.99999999998
25.504	1580
25.512	1551
25.52	1533
25.528	1523
25.536	1518
25.544	1516
25.552	1517
25.56	1520
25.568	1522
25.576	1523
25.584	1523
25.592	1521
25.6	1517
25.608	1511
25.616	1503
25.624	1493
25.632	1480
25.64	1462
25.648	1441
25.656	1419
25.664	1396
25.672	1371
25.68	1347
25.688	1323
25.696	1299
25.704	1277
25.712	1259
25.72	1250
25.728	1254
25.736	1279
25.744	1333
25.752	1420
25.76	1541
25.768	1694
25.776	1872
25.784	2065
25.792	2261
25.8	2446
25.808	2606
25.816	2734
25.824	2826
25.832	2879
25.84	2893
25.848	2870
25.856	2813
25.864	2729
25.872	2623
25.88	2502
25.888	2371
25.896	2237
25.904	2107
25.912	1986
25.92	1877
25.928	1784
25.936	1708
25.944	1649
25.952	1604
25.96	1570
25.968	1547
25.976	1532
25.984	1522
25.992	1516
26	1512
26.008	1509
26.016	1507
26.024	1504
26.032	1498
26.04	1491
26.048	1482
26.056	1469
26.064	1454
26.072	1436
26.08	1414.99999999999
26.088	1391
26.096	1364
26.104	1335
26.112	1305.99999999999
26.12	1276
26.128	1247
26.136	1218
26.144	1186.99999999999
26.152	1158
26.16	1133
26.168	1115
26.176	1107
26.184	1117
26.192	1153
26.2	1221
26.208	1325.00000000005
26.216	1463
26.224	1628
26.232	1811
26.24	2002.00000000008
26.248	2186
26.256	2351
26.264	2487
26.272	2586.00000000003
26.28	2645
26.288	2663
26.296	2641
26.304	2582.99999999997
26.312	2494
26.32	2382
26.328	2254
26.336	2117.99999999994
26.344	1981
26.352	1848
26.36	1723
26.368	1563.99999999995
26.376	1477
26.384	1405
26.392	1305
26.4	1273.99999999999
26.408	1252
26.416	1234
26.424	1229
26.432	1228
26.44	1228
26.448	1228
26.456	1228
26.464	1228
26.472	1227
26.48	1224
26.488	1218
26.496	1211
26.504	1201
26.512	1186
26.52	1168
26.528	1148.99999999999
26.536	1129
26.544	1095
26.552	1071
26.56	1046.99999999999
26.568	1014
26.576	994
26.584	975
26.592	958.999999999994
26.6	948
26.608	956
26.616	985
26.624	1076.00000000004
26.632	1176
26.64	1306
26.648	1461
26.656	1633
26.664	1812
26.672	1983
26.68	2135
26.688	2259
26.696	2347
26.704	2396
26.712	2404
26.72	2374
26.728	2312
26.736	2223
26.744	2114
26.752	1992
26.76	1865
26.768	1739
26.776	1619
26.784	1510
26.792	1415
26.8	1335
26.808	1271
26.816	1222
26.824	1186
26.832	1163
26.84	1150
26.848	1145
26.856	1147
26.864	1152
26.872	1158
26.88	1165
26.888	1173
26.896	1181
26.904	1187
26.912	1189
26.92	1187
26.928	1180
26.936	1169
26.944	1157
26.952	1142
26.96	1125
26.968	1107
26.976	1086
26.984	1063
26.992	1041
27	1020
27.008	998
27.016	975.999999999991
27.024	956
27.032	939
27.04	928
27.048	927
27.056	944
27.064	983
27.072	1049
27.08	1145.00000000005
27.088	1272
27.096	1425
27.104	1597
27.112	1776.00000000008
27.12	1951
27.128	2111
27.136	2243
27.144	2339.00000000003
27.152	2395
27.16	2411
27.168	2388
27.176	2329.99999999997
27.184	2244
27.192	2136
27.2	2014
27.208	1886.99999999994
27.216	1761
27.224	1640
27.232	1529
27.24	1431.99999999996
27.248	1349
27.256	1283
27.264	1233
27.272	1196.99999999999
27.28	1174
27.288	1162
27.296	1210
27.304	1289.00000000003
27.312	1333
27.32	1358
27.328	1373
27.336	1384
27.344	1390
27.352	1392
27.36	1390
27.368	1386
27.376	1379
27.384	1369
27.392	1356
27.4	1339.99999999999
27.408	1323
27.416	1305
27.424	1286
27.432	1265.99999999999
27.44	1245
27.448	1224
27.456	1203
27.464	1183.99999999999
27.472	1167
27.48	1154
27.488	1147
27.496	1150
27.504	1167
27.512	1206
27.52	1270
27.528	1364.00000000005
27.536	1487
27.544	1636
27.552	1802
27.56	1973.00000000007
27.568	2139
27.576	2288
27.584	2409
27.592	2497.00000000003
27.6	2548
27.608	2562
27.616	2542
27.624	2491.99999999997
27.632	2417
27.64	2323
27.648	2215
27.656	2099
27.664	1982
27.672	1870
27.68	1767
27.688	1677
27.696	1601
27.704	1539
27.712	1492
27.72	1460
27.728	1441
27.736	1432
27.744	1429
27.752	1431
27.76	1436
27.768	1441
27.776	1447
27.784	1454
27.792	1460
27.8	1464
27.808	1466
27.816	1467
27.824	1466
27.832	1460
27.84	1451
27.848	1441
27.856	1428
27.864	1412
27.872	1395
27.88	1379
27.888	1363
27.896	1345
27.904	1327
27.912	1309
27.92	1290
27.928	1274
27.936	1266
27.944	1270
27.952	1293
27.96	1342
27.968	1420
27.976	1529
27.984	1667
27.992	1829
28	2005
28.008	2182
28.016	2348.00000000007
28.024	2493
28.032	2609
28.04	2690
28.048	2733.00000000001
28.056	2740
28.064	2713
28.072	2657
28.08	2575.99999999996
28.088	2476
28.096	2366
28.104	2251
28.112	2134.99999999995
28.12	2024
28.128	1923
28.136	1833
28.144	1754.99999999997
28.152	1691
28.16	1640
28.168	1602
28.176	1575.99999999999
28.184	1560
28.192	1552
28.2	1549
28.208	1550
28.216	1553
28.224	1558
28.232	1561
28.24	1563
28.248	1564
28.256	1562
28.264	1557
28.272	1551
28.28	1543
28.288	1533
28.296	1520
28.304	1502.99999999999
28.312	1485
28.32	1465
28.328	1443
28.336	1419.99999999999
28.344	1396
28.352	1372
28.36	1349
28.368	1327.99999999999
28.376	1309
28.384	1296
28.392	1292
28.4	1306.00000000001
28.408	1345
28.416	1415
28.424	1519
28.432	1655.00000000007
28.44	1818
28.448	1996
28.456	2176
28.464	2347.00000000007
28.472	2496
28.48	2613
28.488	2694
28.496	2734
28.504	2737
28.512	2708
28.52	2648
28.528	2562.99999999996
28.536	2461
28.544	2348
28.552	2228
28.56	2104.99999999995
28.568	1986
28.576	1875
28.584	1776
28.592	1689.99999999997
28.6	1618
28.608	1560
28.616	1516
28.624	1483.99999999999
28.632	1460
28.64	1443
28.648	1434
28.656	1428
28.664	1424
28.672	1421
28.68	1418
28.688	1413
28.696	1407
28.704	1399
28.712	1389
28.72	1378
28.728	1366
28.736	1353
28.744	1338
28.752	1320
28.76	1301
28.768	1281
28.776	1259
28.784	1236
28.792	1212
28.8	1187
28.808	1163
28.816	1141
28.824	1121
28.832	1104
28.84	1092
28.848	1091
28.856	1108
28.864	1149
28.872	1220
28.88	1321
28.888	1451
28.896	1604
28.904	1772
28.912	1943
28.92	2103
28.928	2240
28.936	2346
28.944	2416
28.952	2449
28.96	2447
28.968	2412
28.976	2348
28.984	2261
28.992	2159
29	2047
29.008	1931
29.016	1817.99999999995
29.024	1712
29.032	1615
29.04	1531
29.048	1460.99999999997
29.056	1405
29.064	1363
29.072	1332
29.08	1309.99999999999
29.088	1297
29.096	1291
29.104	1289
29.112	1291
29.12	1295
29.128	1300
29.136	1304
29.144	1306
29.152	1306
29.16	1304
29.168	1300
29.176	1294
29.184	1286
29.192	1275
29.2	1262
29.208	1246.99999999999
29.216	1231
29.224	1214
29.232	1196
29.24	1176.99999999999
29.248	1160
29.256	1144
29.264	1127
29.272	1110.99999999999
29.28	1096
29.288	1084
29.296	1079
29.304	1085
29.312	1108
29.32	1152
29.328	1223
29.336	1323.00000000005
29.344	1475
29.352	1662
29.36	1843
29.368	2017.00000000007
29.376	2175
29.384	2309
29.392	2411
29.4	2477.00000000002
29.408	2506
29.416	2497
29.424	2455
29.432	2385.99999999997
29.44	2297
29.448	2195
29.456	2085
29.464	1973.99999999995
29.472	1866
29.48	1765
29.488	1676
29.496	1599.99999999997
29.504	1537
29.512	1488
29.52	1452
29.528	1426.99999999999
29.536	1411
29.544	1403
29.552	1402
29.56	1404
29.568	1410
29.576	1420
29.584	1430
29.592	1438
29.6	1444
29.608	1447
29.616	1447
29.624	1445
29.632	1441
29.64	1433
29.648	1422
29.656	1406.99999999999
29.664	1390
29.672	1372
29.68	1352
29.688	1330.99999999999
29.696	1310
29.704	1289
29.712	1271
29.72	1254
29.728	1238
29.736	1226
29.744	1220
29.752	1224
29.76	1243
29.768	1284
29.776	1352
29.784	1451
29.792	1581
29.8	1735
29.808	1904
29.816	2076
29.824	2239
29.832	2381
29.84	2493
29.848	2571
29.856	2613
29.864	2618
29.872	2589
29.88	2533
29.888	2453
29.896	2356
29.904	2249
29.912	2139
29.92	2031
29.928	1928
29.936	1833
29.944	1750
29.952	1678
29.96	1620
29.968	1575
29.976	1543
29.984	1523
29.992	1512
30	1508
30.008	1510
30.016	1516
30.024	1524
30.032	1531
30.04	1537
30.048	1541
30.056	1542
30.064	1540
30.072	1536
30.08	1529
30.088	1521
30.096	1511
30.104	1498
30.112	1482.99999999999
30.12	1468
30.128	1452
30.136	1435
30.144	1417.99999999999
30.152	1401
30.16	1383
30.168	1365
30.176	1348.99999999999
30.184	1334
30.192	1323
30.2	1322
30.208	1334.00000000001
30.216	1368
30.224	1431
30.232	1526
30.24	1652.00000000006
30.248	1806
30.256	1979
30.264	2160
30.272	2336.00000000007
30.28	2494
30.288	2623
30.296	2717
30.304	2772.00000000001
30.312	2788
30.32	2768
30.328	2718
30.336	2643.99999999996
30.344	2550
30.352	2444
30.36	2333
30.368	2220.99999999995
30.376	2112
30.384	2011
30.392	1921
30.4	1843.99999999997
30.408	1781
30.416	1732
30.424	1696
30.432	1672.99999999999
30.44	1661
30.448	1657
30.456	1659
30.464	1665
30.472	1672
30.48	1678
30.488	1684
30.496	1689
30.504	1693
30.512	1694
30.52	1691
30.528	1686
30.536	1679
30.544	1671
30.552	1660
30.56	1644.99999999999
30.568	1629
30.576	1611
30.584	1592
30.592	1573.99999999999
30.6	1557
30.608	1540
30.616	1521
30.624	1501.99999999999
30.632	1483
30.64	1467
30.648	1457
30.656	1460
30.664	1483
30.672	1535
30.68	1622
30.688	1746.00000000006
30.696	1904
30.704	2087
30.712	2282
30.72	2473
30.728	2648
30.736	2793
30.744	2900
30.752	2965
30.76	2991
30.768	2980
30.776	2937
30.784	2870
30.792	2782
30.8	2679
30.808	2568
30.816	2452
30.824	2337
30.832	2228
30.84	2129
30.848	2043
30.856	1970
30.864	1912
30.872	1867
30.88	1834
30.888	1812
30.896	1800
30.904	1794
30.912	1793
30.92	1796
30.928	1799
30.936	1802
30.944	1802
30.952	1798
30.96	1791
30.968	1783
30.976	1771
30.984	1754
30.992	1733
31	1711
31.008	1688
31.016	1662.99999999999
31.024	1638
31.032	1613
31.04	1590
31.048	1567.99999999999
31.056	1546
31.064	1524
31.072	1503
31.08	1481.99999999999
31.088	1460
31.096	1439
31.104	1424
31.112	1421
31.12	1438
31.128	1481
31.136	1556
31.144	1665.00000000005
31.152	1807
31.16	1971
31.168	2147
31.176	2322.00000000007
31.184	2480
31.192	2612
31.2	2710
31.208	2769.00000000001
31.216	2789
31.224	2773
31.232	2727
31.24	2655.99999999996
31.248	2566
31.256	2463
31.264	2353
31.272	2240.99999999995
31.28	2130
31.288	2025
31.296	1930
31.304	1843.99999999996
31.312	1771
31.32	1712
31.328	1666
31.336	1630.99999999999
31.344	1606
31.352	1590
31.36	1581
31.368	1577
31.376	1576
31.384	1575
31.392	1557
31.4	1530.99999999999
31.408	1516
31.416	1504
31.424	1494
31.432	1484
31.44	1472
31.448	1458
31.456	1443
31.464	1425.99999999999
31.472	1408
31.48	1392
31.488	1375
31.496	1358.99999999999
31.504	1343
31.512	1326
31.52	1309
31.528	1293.99999999999
31.536	1278
31.544	1261
31.552	1246
31.56	1233
31.568	1227
31.576	1233
31.584	1257
31.592	1305.00000000003
31.6	1380
31.608	1483
31.616	1613
31.624	1762.00000000007
31.632	1919
31.64	2072
31.648	2208
31.656	2320.00000000004
31.664	2401
31.672	2449
31.68	2463
31.688	2443.99999999999
31.696	2397
31.704	2329
31.712	2245
31.72	2150.99999999996
31.728	2053
31.736	1956
31.744	1862
31.752	1775
31.76	1699
31.768	1633
31.776	1578
31.784	1535
31.792	1504
31.8	1482
31.808	1469
31.816	1464
31.824	1464
31.832	1468
31.84	1473
31.848	1479
31.856	1485
31.864	1489
31.872	1490
31.88	1488
31.888	1485
31.896	1481
31.904	1473
31.912	1463
31.92	1451
31.928	1436
31.936	1420
31.944	1404
31.952	1388
31.96	1371
31.968	1354
31.976	1336
31.984	1318
31.992	1301
32	1285
32.008	1270
32.016	1257
32.024	1251
32.032	1256.00000000001
32.04	1275
32.048	1316
32.056	1383
32.064	1478
32.072	1598
32.08	1739
32.088	1893
32.096	2047.00000000013
32.104	2190
32.112	2313
32.12	2408
32.128	2469
32.136	2498
32.144	2494
32.152	2459
32.16	2398.99999999994
32.168	2320
32.176	2228
32.184	2130
32.192	2030
32.2	1933
32.208	1844
32.216	1764
32.224	1693.99999999994
32.232	1636
32.24	1591
32.248	1556
32.256	1531
32.264	1518
32.272	1512
32.28	1511
32.288	1514
32.296	1520
32.304	1528
32.312	1535
32.32	1541
32.328	1545
32.336	1545
32.344	1541
32.352	1533.99999999999
32.36	1523
32.368	1510
32.376	1495
32.384	1479
32.392	1462
32.4	1444
32.408	1425
32.416	1406.99999999998
32.424	1390
32.432	1372
32.44	1354
32.448	1337
32.456	1321
32.464	1306
32.472	1294
32.48	1288
32.488	1292
32.496	1313
32.504	1357
32.512	1428
32.52	1529
32.528	1659
32.536	1810
32.544	1974.00000000015
32.552	2140
32.56	2296
32.568	2431
32.576	2536
32.584	2608
32.592	2644
32.6	2644
32.608	2613.99999999997
32.616	2558
32.624	2482
32.632	2392
32.64	2295
32.648	2196
32.656	2097
32.664	2003
32.672	1915.99999999993
32.68	1840
32.688	1776
32.696	1723
32.704	1683
32.712	1656
32.72	1640
32.728	1632
32.736	1631
32.744	1637
32.752	1645
32.76	1654
32.768	1663
32.776	1670
32.784	1673
32.792	1674
32.8	1671
32.808	1666
32.816	1658
32.824	1647
32.832	1634
32.84	1619
32.848	1605
32.856	1591
32.864	1576
32.872	1560
32.88	1543
32.888	1527
32.896	1512
32.904	1497
32.912	1482
32.92	1465
32.928	1449
32.936	1437
32.944	1437
32.952	1455
32.96	1497
32.968	1570
32.976	1675
32.984	1812
32.992	1973
33	2147
33.008	2322
33.016	2486
33.024	2626
33.032	2733.00000000008
33.04	2807
33.048	2844
33.056	2844
33.064	2814
33.072	2759
33.08	2685
33.088	2598
33.096	2502.99999999991
33.104	2405
33.112	2308
33.12	2215
33.128	2130
33.136	2052
33.144	1984
33.152	1928
33.16	1883.99999999997
33.168	1853
33.176	1833
33.184	1821
33.192	1817
33.2	1818
33.208	1820
33.216	1823
33.224	1826
33.232	1827
33.24	1828
33.248	1826
33.256	1822
33.264	1816
33.272	1806
33.28	1792
33.288	1775.99999999998
33.296	1758
33.304	1738
33.312	1717
33.32	1696
33.328	1674
33.336	1651
33.344	1629
33.352	1608.99999999998
33.36	1591
33.368	1574
33.376	1556
33.384	1537
33.392	1522
33.4	1513
33.408	1515
33.416	1537.00000000003
33.424	1587
33.432	1670
33.44	1782
33.448	1927
33.456	2105
33.464	2296
33.472	2484
33.48	2654.00000000014
33.488	2793
33.496	2895
33.504	2955
33.512	2974
33.52	2955
33.528	2904
33.536	2825
33.544	2726.99999999991
33.552	2617
33.56	2500
33.568	2380
33.576	2263
33.584	2154
33.592	2055
33.6	1968
33.608	1890.99999999994
33.616	1827
33.624	1775
33.632	1733
33.64	1702
33.648	1682
33.656	1671
33.664	1666
33.672	1664
33.68	1664
33.688	1663
33.696	1660
33.704	1653
33.712	1643
33.72	1630
33.728	1613
33.736	1592.99999999998
33.744	1570
33.752	1545
33.76	1519
33.768	1491
33.776	1462
33.784	1432
33.792	1403
33.8	1376
33.808	1350
33.816	1326
33.824	1304
33.832	1283
33.84	1263
33.848	1242
33.856	1220
33.864	1202
33.872	1193
33.88	1202
33.888	1235
33.896	1299
33.904	1399
33.912	1533
33.92	1693
33.928	1870
33.936	2050
33.944	2220
33.952	2368
33.96	2484
33.968	2563
33.976	2603
33.984	2605
33.992	2573
34	2513
34.008	2432
34.016	2335
34.024	2230
34.032	2121.9999999999
34.04	2015
34.048	1914
34.056	1820
34.064	1735
34.072	1661
34.08	1598
34.088	1547
34.096	1508.99999999997
34.104	1482
34.112	1464
34.12	1454
34.128	1451
34.136	1454
34.144	1460
34.152	1467
34.16	1473
34.168	1477
34.176	1477
34.184	1473
34.192	1465
34.2	1453
34.208	1438
34.216	1420
34.224	1400.99999999998
34.232	1381
34.24	1359
34.248	1336
34.256	1312
34.264	1289
34.272	1268
34.28	1247
34.288	1226.99999999998
34.296	1207
34.304	1188
34.312	1170
34.32	1154
34.328	1142
34.336	1138
34.344	1146
34.352	1171.00000000003
34.36	1220
34.368	1297
34.376	1406
34.384	1542
34.392	1698
34.4	1864
34.408	2028
34.416	2178.00000000012
34.424	2304
34.432	2400
34.44	2462
34.448	2489
34.456	2483
34.464	2447
34.472	2387
34.48	2307.99999999992
34.488	2216
34.496	2117
34.504	2016
34.512	1918
34.52	1826
34.528	1742
34.536	1669
34.544	1605.99999999995
34.552	1552
34.56	1510
34.568	1478
34.576	1455
34.584	1442
34.592	1436
34.6	1436
34.608	1441.00000000001
34.616	1450
34.624	1459
34.632	1467
34.64	1473
34.648	1476
34.656	1474
34.664	1468
34.672	1457.99999999999
34.68	1444
34.688	1428
34.696	1412
34.704	1395
34.712	1376
34.72	1354
34.728	1331
34.736	1308.99999999998
34.744	1288
34.752	1266
34.76	1244
34.768	1223
34.776	1202
34.784	1181
34.792	1165
34.8	1157
34.808	1161
34.816	1183
34.824	1231
34.832	1309
34.84	1420
34.848	1561
34.856	1724
34.864	1898
34.872	2071
34.88	2232
34.888	2370
34.896	2478
34.904	2553
34.912	2593
34.92	2598
34.928	2571
34.936	2518
34.944	2443
34.952	2353
34.96	2254
34.968	2150
34.976	2047
34.984	1949
34.992	1857
35	1774
35.008	1701
35.016	1640
35.024	1590
35.032	1551.99999999997
35.04	1526
35.048	1511
35.056	1505
35.064	1506
35.072	1513
35.08	1524
35.088	1536
35.096	1548.00000000001
35.104	1557
35.112	1563
35.12	1565
35.128	1563
35.136	1556
35.144	1544
35.152	1531
35.16	1516.99999999999
35.168	1500
35.176	1481
35.184	1460
35.192	1437
35.2	1416
35.208	1394
35.216	1372
35.224	1349.99999999998
35.232	1328
35.24	1308
35.248	1291
35.256	1278
35.264	1271
35.272	1277
35.28	1302
35.288	1353.00000000006
35.296	1438
35.304	1558
35.312	1709
35.32	1884
35.328	2071
35.336	2259
35.344	2434
35.352	2584.00000000012
35.36	2703
35.368	2788
35.376	2835
35.384	2846
35.392	2824
35.4	2773
35.408	2700
35.416	2610.99999999992
35.424	2512
35.432	2407
35.44	2303
35.448	2202
35.456	2107
35.464	2022
35.472	1946
35.48	1880.99999999994
35.488	1822
35.496	1770
35.504	1734
35.512	1713
35.52	1704
35.528	1701
35.536	1704
35.544	1711.00000000001
35.552	1719
35.56	1726
35.568	1731
35.576	1734
35.584	1735
35.592	1734
35.6	1727
35.608	1715.99999999999
35.616	1700
35.624	1680
35.632	1659
35.64	1637
35.648	1613
35.656	1589
35.664	1565
35.672	1540.99999999998
35.68	1518
35.688	1496
35.696	1475
35.704	1453
35.712	1429
35.72	1406
35.728	1388
35.736	1381
35.744	1393
35.752	1431
35.76	1502
35.768	1612
35.776	1760
35.784	1937
35.792	2131
35.8	2328.00000000017
35.808	2514
35.816	2677
35.824	2809
35.832	2905
35.84	2963
35.848	2983
35.856	2968
35.864	2921
35.872	2851
35.88	2764
35.888	2663
35.896	2556
35.904	2445
35.912	2336
35.92	2232
35.928	2137
35.936	2054
35.944	1983
35.952	1926
35.96	1880
35.968	1845
35.976	1820
35.984	1803
35.992	1794
36	1790
36.008	1790
36.016	1791
36.024	1792
36.032	1791
36.04	1787
36.048	1779
36.056	1768
36.064	1753
36.072	1734
36.08	1710
36.088	1683
36.096	1654.99999999998
36.104	1627
36.112	1599
36.12	1569
36.128	1537
36.136	1506
36.144	1476
36.152	1447
36.16	1419.99999999998
36.168	1394
36.176	1367
36.184	1340
36.192	1315
36.2	1294
36.208	1281
36.216	1285
36.224	1315.00000000004
36.232	1378
36.24	1476
36.248	1610
36.256	1772
36.264	1952
36.272	2137
36.28	2314
36.288	2469.00000000012
36.296	2595
36.304	2686
36.312	2738
36.32	2754
36.328	2736
36.336	2689
36.344	2619
36.352	2530.99999999992
36.36	2430
36.368	2321
36.376	2210
36.384	2099
36.392	1995
36.4	1900
36.408	1814
36.416	1738.99999999994
36.424	1677
36.432	1627
36.44	1588
36.448	1557
36.456	1536
36.464	1524
36.472	1518
36.48	1517
36.488	1521
36.496	1525
36.504	1525
36.512	1522
36.52	1517
36.528	1511
36.536	1503
36.544	1492.99999999999
36.552	1481
36.56	1466
36.568	1448
36.576	1427
36.584	1404
36.592	1380
36.6	1354
36.608	1326.99999999998
36.616	1302
36.624	1279
36.632	1259
36.64	1239
36.648	1219
36.656	1199
36.664	1179
36.672	1159.99999999999
36.68	1145
36.688	1143
36.696	1159
36.704	1197
36.712	1263
36.72	1360
36.728	1485
36.736	1715.00000000017
36.744	1880
36.752	2043
36.76	2317
36.768	2414
36.776	2478
36.784	2505
36.792	2474
36.8	2420.99999999994
36.808	2310
36.816	2221
36.824	2128
36.832	2034
36.84	1941
36.848	1854
36.856	1771
36.864	1694.99999999993
36.872	1601
36.88	1550
36.888	1510
36.896	1469
36.904	1455
36.912	1449
36.92	1449
36.928	1453
36.936	1459
36.944	1466
36.952	1472
36.96	1476
36.968	1477
36.976	1476
36.984	1472
36.992	1465
37	1456
37.008	1443
37.016	1427
37.024	1410
37.032	1391.99999999998
37.04	1373
37.048	1353
37.056	1332
37.064	1311
37.072	1291
37.08	1271
37.088	1251
37.096	1231.99999999998
37.104	1213
37.112	1195
37.12	1181
37.128	1175
37.136	1183
37.144	1212
37.152	1267
37.16	1353.00000000009
37.168	1468
37.176	1608
37.184	1766
37.192	1930
37.2	2089
37.208	2235
37.216	2359
37.224	2455.00000000007
37.232	2521
37.24	2556
37.248	2559
37.256	2533
37.264	2483
37.272	2414
37.28	2331
37.288	2239.99999999992
37.296	2145
37.304	2050
37.312	1957
37.32	1872
37.328	1793
37.336	1723
37.344	1663
37.352	1612.99999999996
37.36	1572
37.368	1541
37.376	1523
37.384	1514
37.392	1510
37.4	1511
37.408	1515
37.416	1520
37.424	1525
37.432	1529
37.44	1531
37.448	1531
37.456	1528
37.464	1521
37.472	1513
37.48	1502.99999999999
37.488	1490
37.496	1474
37.504	1436
37.512	1385
37.52	1347
37.528	1316
37.536	1288
37.544	1262.99999999998
37.552	1240
37.56	1217
37.568	1195
37.576	1174
37.584	1156
37.592	1143
37.6	1138
37.608	1146.00000000001
37.616	1177
37.624	1239
37.632	1337
37.64	1471
37.648	1635
37.656	1820
37.664	2014
37.672	2206.00000000016
37.68	2383
37.688	2536
37.696	2657
37.704	2742
37.712	2790
37.72	2805
37.728	2790
37.736	2745.99999999995
37.744	2679
37.752	2595
37.76	2498
37.768	2395
37.776	2291
37.784	2188
37.792	2091
37.8	2000.99999999992
37.808	1918
37.816	1844
37.824	1781
37.832	1730
37.84	1690
37.848	1661
37.856	1641
37.864	1629.99999999999
37.872	1626
37.88	1628
37.888	1634
37.896	1640
37.904	1646
37.912	1651
37.92	1653
37.928	1651
37.936	1645
37.944	1635
37.952	1621
37.96	1603
37.968	1584
37.976	1565
37.984	1546
37.992	1524
38	1500
38.008	1476
38.016	1453
38.024	1431
38.032	1407.99999999998
38.04	1384
38.048	1359
38.056	1335
38.064	1314
38.072	1300
38.08	1302
38.088	1328
38.096	1385.00000000006
38.104	1480
38.112	1612
38.12	1777
38.128	1966
38.136	2165
38.144	2365
38.152	2551
38.16	2710.00000000012
38.168	2835
38.176	2924
38.184	2975
38.192	2990
38.2	2970
38.208	2920
38.216	2846
38.224	2755.99999999992
38.232	2655
38.24	2548
38.248	2439
38.256	2332
38.264	2229
38.272	2134
38.28	2047
38.288	1970.99999999994
38.296	1906
38.304	1852
38.312	1810
38.32	1779
38.328	1759
38.336	1748
38.344	1742
38.352	1741
38.36	1744
38.368	1746
38.376	1747
38.384	1747
38.392	1743
38.4	1734
38.408	1721
38.416	1705.99999999999
38.424	1687
38.432	1667
38.44	1645
38.448	1619
38.456	1592
38.464	1565
38.472	1537
38.48	1507.99999999997
38.488	1479
38.496	1450
38.504	1421
38.512	1393
38.52	1363
38.528	1333
38.536	1306
38.544	1283.99999999999
38.552	1272
38.56	1277
38.568	1307
38.576	1370
38.584	1471
38.592	1611
38.6	1782
38.608	1970.00000000017
38.616	2165
38.624	2356
38.632	2529
38.64	2675
38.648	2786
38.656	2860
38.664	2896
38.672	2895
38.68	2862
38.688	2801
38.696	2719
38.704	2621
38.712	2515
38.72	2406
38.728	2295
38.736	2187.99999999991
38.744	2087
38.752	1993
38.76	1907
38.768	1832
38.776	1769
38.784	1718
38.792	1676
38.8	1643.99999999998
38.808	1621
38.816	1606
38.824	1594
38.832	1584
38.84	1578
38.848	1575
38.856	1573
38.864	1571
38.872	1568
38.88	1562
38.888	1553
38.896	1541
38.904	1525
38.912	1506
38.92	1484
38.928	1460
38.936	1435
38.944	1408
38.952	1380
38.96	1353
38.968	1326
38.976	1300
38.984	1276
38.992	1252
39	1227
39.008	1201
39.016	1177
39.024	1158
39.032	1145
39.04	1144
39.048	1161
39.056	1206
39.064	1280
39.072	1385
39.08	1521
39.088	1680
39.096	1852.00000000015
39.104	2026
39.112	2191
39.12	2339
39.128	2462
39.136	2554
39.144	2612
39.152	2637
39.16	2631.99999999999
39.168	2598
39.176	2541
39.184	2466
39.192	2378
39.2	2282
39.208	2182
39.216	2083
39.224	1987.99999999992
39.232	1897
39.24	1813
39.248	1738
39.256	1670
39.264	1611
39.272	1565
39.28	1529
39.288	1501.99999999998
39.296	1484
39.304	1474
39.312	1469
39.32	1468
39.328	1469
39.336	1472
39.344	1475
39.352	1478
39.36	1478
39.368	1476
39.376	1472
39.384	1464
39.392	1453
39.4	1441
39.408	1425
39.416	1404.99999999998
39.424	1383
39.432	1359
39.44	1335
39.448	1312
39.456	1290
39.464	1270
39.472	1251
39.48	1231.99999999998
39.488	1212
39.496	1192
39.504	1173
39.512	1161
39.52	1158
39.528	1169
39.536	1203
39.544	1266.00000000006
39.552	1342
39.56	1442
39.568	1586
39.576	1756
39.584	1937
39.592	2118
39.6	2286
39.608	2431.00000000011
39.616	2546
39.624	2625
39.632	2667
39.64	2674
39.648	2651
39.656	2602
39.664	2530
39.672	2442.99999999992
39.68	2347
39.688	2247
39.696	2146
39.704	2045
39.712	1948
39.72	1857
39.728	1774
39.736	1698.99999999994
39.744	1635
39.752	1580
39.76	1536
39.768	1504
39.776	1481
39.784	1467
39.792	1461
39.8	1462
39.808	1467
39.816	1473
39.824	1479
39.832	1482
39.84	1480
39.848	1476
39.856	1469
39.864	1459.99999999999
39.872	1448
39.88	1434
39.888	1418
39.896	1400
39.904	1381
39.912	1361
39.92	1339
39.928	1317.99999999998
39.936	1297
39.944	1275
39.952	1252
39.96	1228
39.968	1205
39.976	1183
39.984	1164
39.992	1152
40	1152
40.008	1172
40.016	1220
40.024	1301
40.032	1418.00000000012
40.04	1566
40.048	1740
40.056	1932
40.064	2129
40.072	2320
40.08	2492
40.088	2637
40.096	2751.00000000008
40.104	2830
40.112	2872
40.12	2878
40.128	2853
40.136	2802
40.144	2728
40.152	2639
40.16	2539.99999999991
40.168	2435
40.176	2329
40.184	2225
40.192	2125
40.2	2032
40.208	1948
40.216	1874
40.224	1811.99999999995
40.232	1761
40.24	1721
40.248	1691
40.256	1671
40.264	1660
40.272	1655
40.28	1655
40.288	1656
40.296	1657
40.304	1659
40.312	1659
40.32	1657
40.328	1655
40.336	1652
40.344	1645
40.352	1634.99999999999
40.36	1621
40.368	1603
40.376	1582
40.384	1559
40.392	1536
40.4	1513
40.408	1493
40.416	1472.99999999998
40.424	1451
40.432	1428
40.44	1404
40.448	1380
40.456	1357
40.464	1340
40.472	1335
40.48	1350.00000000002
40.488	1391
40.496	1469
40.504	1587
40.512	1740
40.52	1921
40.528	2123
40.536	2334
40.544	2538.00000000017
40.552	2723
40.56	2884
40.568	3012
40.576	3104
40.584	3158
40.592	3174
40.6	3156
40.608	3107.99999999995
40.616	3035
40.624	2944
40.632	2841
40.64	2730
40.648	2615
40.656	2502
40.664	2393
40.672	2292.99999999991
40.68	2201
40.688	2117
40.696	2042
40.704	1978
40.712	1926
40.72	1884
40.728	1851
40.736	1827.99999999998
40.744	1814
40.752	1807
40.76	1804
40.768	1802
40.776	1800
40.784	1797
40.792	1791
40.8	1779.99999999999
40.808	1767
40.816	1752
40.824	1732
40.832	1710
40.84	1687
40.848	1663
40.856	1637
40.864	1609.99999999998
40.872	1582
40.88	1554
40.888	1528
40.896	1503
40.904	1478
40.912	1450
40.92	1419
40.928	1388.99999999997
40.936	1362
40.944	1342
40.952	1337
40.96	1355
40.968	1404
40.976	1491
40.984	1617
40.992	1778
41	1965
41.008	2168
41.016	2374
41.024	2569
41.032	2742.00000000014
41.04	2886
41.048	2997
41.056	3072
41.064	3109
41.072	3110
41.08	3077
41.088	3016
41.096	2931.99999999992
41.104	2831
41.112	2717
41.12	2595
41.128	2473
41.136	2355
41.144	2243
41.152	2138
41.16	2040.99999999992
41.168	1955
41.176	1880
41.184	1816
41.192	1764
41.2	1724
41.208	1694
41.216	1674
41.224	1661.99999999999
41.232	1655
41.24	1651
41.248	1647
41.256	1641
41.264	1632
41.272	1620
41.28	1607
41.288	1592.99999999999
41.296	1575
41.304	1554
41.312	1531
41.32	1507
41.328	1481
41.336	1452
41.344	1420
41.352	1387.99999999997
41.36	1357
41.368	1327
41.376	1298
41.384	1270
41.392	1245
41.4	1223
41.408	1200
41.416	1176.99999999998
41.424	1158
41.432	1147
41.44	1153
41.448	1183
41.456	1243
41.464	1337
41.472	1466
41.48	1625.00000000015
41.488	1808
41.496	2002
41.504	2195
41.512	2376
41.52	2534
41.528	2663
41.536	2759
41.544	2818.00000000003
41.552	2839
41.56	2827
41.568	2785
41.576	2719
41.584	2636
41.592	2541
41.6	2406
41.608	2249.99999999987
41.616	2119
41.624	2002
41.632	1894
41.64	1797
41.648	1710
41.656	1634
41.664	1571
41.672	1517.99999999996
41.68	1476
41.688	1445
41.696	1423
41.704	1408
41.712	1398
41.72	1393
41.728	1391
41.736	1390
41.744	1389
41.752	1388
41.76	1385
41.768	1381
41.776	1373
41.784	1362
41.792	1349
41.8	1332.99999999998
41.808	1313
41.816	1290
41.824	1266
41.832	1243
41.84	1220
41.848	1196
41.856	1173
41.864	1150.99999999998
41.872	1130
41.88	1110
41.888	1090
41.896	1071
41.904	1055
41.912	1046
41.92	1050
41.928	1073.00000000003
41.936	1121
41.944	1199
41.952	1309
41.96	1448
41.968	1607
41.976	1779
41.984	1956
41.992	2125
42	2279
42.008	2409
42.016	2508
42.024	2574
42.032	2608
42.04	2610
42.048	2583
42.056	2533
42.064	2463
42.072	2378
42.08	2284
42.088	2185
42.096	2083.99999999991
42.104	1983
42.112	1886
42.12	1795
42.128	1712
42.136	1638
42.144	1575
42.152	1524
42.16	1482.99999999997
42.168	1451
42.176	1428
42.184	1413
42.192	1403
42.2	1396
42.208	1394
42.216	1395
42.224	1394
42.232	1391
42.24	1390
42.248	1387
42.256	1382
42.264	1373
42.272	1362
42.28	1348
42.288	1330.99999999998
42.296	1312
42.304	1292
42.312	1272
42.32	1251
42.328	1232
42.336	1212
42.344	1191
42.352	1169.99999999998
42.36	1147
42.368	1127
42.376	1110
42.384	1096
42.392	1093
42.4	1106
42.408	1140
42.416	1202.00000000007
42.424	1295
42.432	1420
42.44	1571
42.448	1742
42.456	1923
42.464	2105
42.472	2277
42.48	2430.00000000012
42.488	2555
42.496	2648
42.504	2707
42.512	2733
42.52	2726
42.528	2690
42.536	2631
42.544	2554.99999999993
42.552	2465
42.56	2366
42.568	2262
42.576	2156
42.584	2052
42.592	1952
42.6	1859
42.608	1775.99999999993
42.616	1702
42.624	1640
42.632	1592
42.64	1558
42.648	1535
42.656	1521
42.664	1513
42.672	1509
42.68	1508
42.688	1509
42.696	1512
42.704	1515
42.712	1518
42.72	1519
42.728	1519
42.736	1516
42.744	1509
42.752	1499
42.76	1485
42.768	1467
42.776	1445
42.784	1422
42.792	1400
42.8	1378.99999999998
42.808	1358
42.816	1336
42.824	1316
42.832	1296
42.84	1275
42.848	1257
42.856	1245
42.864	1242
42.872	1252
42.88	1285
42.888	1349
42.896	1448
42.904	1581
42.912	1745
42.92	1932
42.928	2129.00000000018
42.936	2327
42.944	2514
42.952	2679
42.96	2816
42.968	2919
42.976	2987
42.984	3019
42.992	3017
43	2985
43.008	2928
43.016	2850
43.024	2757
43.032	2654.99999999991
43.04	2548
43.048	2437
43.056	2328
43.064	2224
43.072	2127
43.08	2041
43.088	1964
43.096	1895.99999999995
43.104	1841
43.112	1798
43.12	1764
43.128	1739
43.136	1722
43.144	1708
43.152	1696
43.16	1687.99999999999
43.168	1683
43.176	1678
43.184	1672
43.192	1665
43.2	1656
43.208	1644
43.216	1628
43.224	1607.99999999998
43.232	1586
43.24	1564
43.248	1542
43.256	1518
43.264	1493
43.272	1469
43.28	1445
43.288	1421.99999999998
43.296	1400
43.304	1378
43.312	1355
43.32	1331
43.328	1308
43.336	1291
43.344	1289
43.352	1309.00000000003
43.36	1358
43.368	1442
43.376	1562
43.384	1715
43.392	1895
43.4	2091
43.408	2291
43.416	2482.00000000016
43.424	2653
43.432	2798
43.44	2911
43.448	2990
43.456	3033
43.464	3041
43.472	3015
43.48	2960.99999999994
43.488	2884
43.496	2788
43.504	2679
43.512	2564
43.52	2445
43.528	2326
43.536	2211
43.544	2105.99999999991
43.552	2010
43.56	1923
43.568	1848
43.576	1783
43.584	1730
43.592	1689
43.6	1659
43.608	1636.99999999998
43.616	1621
43.624	1609
43.632	1599
43.64	1590
43.648	1586
43.656	1584
43.664	1577
43.672	1565.99999999999
43.68	1551
43.688	1535
43.696	1515
43.704	1491
43.712	1465
43.72	1439
43.728	1414
43.736	1386.99999999998
43.744	1359
43.752	1332
43.76	1306
43.768	1282
43.776	1259
43.784	1237
43.792	1215
43.8	1192.99999999998
43.808	1175
43.816	1164
43.824	1163
43.832	1180
43.84	1220
43.848	1289
43.856	1389
43.864	1515.00000000012
43.872	1663
43.88	1828
43.888	1999
43.896	2165
43.904	2317
43.912	2448
43.92	2551
43.928	2623.00000000004
43.936	2661
43.944	2667
43.952	2644
43.96	2596
43.968	2529
43.976	2449
43.984	2360
43.992	2264.99999999991
44	2169
44.008	2074
44.016	1981
44.024	1892
44.032	1809.99999999993
44.04	1737
44.048	1673
44.056	1621
44.064	1581
44.072	1551
44.08	1529
44.088	1514
44.096	1505
44.104	1502
44.112	1501
44.12	1500
44.128	1497
44.136	1493
44.144	1487
44.152	1479
44.16	1466.99999999999
44.168	1452
44.176	1437
44.184	1422
44.192	1405
44.2	1387
44.208	1368
44.216	1348
44.224	1326.99999999998
44.232	1307
44.24	1288
44.248	1269
44.256	1250
44.264	1230
44.272	1209
44.28	1190
44.288	1173.99999999999
44.296	1164
44.304	1164
44.312	1180
44.32	1217
44.328	1278
44.336	1364
44.344	1474
44.352	1603.00000000012
44.36	1746
44.368	1894
44.376	2038
44.384	2171
44.392	2287
44.4	2381
44.408	2448
44.416	2484.00000000001
44.424	2492
44.432	2474
44.44	2433
44.448	2373
44.456	2299
44.464	2217
44.472	2130
44.48	2039.99999999992
44.488	1951
44.496	1867
44.504	1788
44.512	1715
44.52	1651
44.528	1596
44.536	1550
44.544	1514.99999999997
44.552	1490
44.56	1472
44.568	1462
44.576	1458
44.584	1457
44.592	1459
44.6	1462
44.608	1463
44.616	1461
44.624	1456
44.632	1450
44.64	1443
44.648	1436
44.656	1426
44.664	1414
44.672	1399.99999999999
44.68	1383
44.688	1365
44.696	1344
44.704	1321
44.712	1301
44.72	1283
44.728	1266
44.736	1247.99999999998
44.744	1230
44.752	1212
44.76	1195
44.768	1184
44.776	1184
44.784	1202
44.792	1241
44.8	1306.00000000007
44.808	1398
44.816	1513
44.824	1647
44.832	1795
44.84	1951
44.848	2106
44.856	2250
44.864	2376.0000000001
44.872	2478
44.88	2553
44.888	2599
44.896	2615
44.904	2602
44.912	2562
44.92	2501
44.928	2424.99999999993
44.936	2338
44.944	2245
44.952	2152
44.96	2060
44.968	1972
44.976	1890
44.984	1815
44.992	1749.99999999995
45	1694
45.008	1646
45.016	1608
45.024	1582
45.032	1564.99999999999
45.04	1557
45.048	1557
45.056	1560
45.064	1562
45.072	1564
45.08	1565
45.088	1565
45.096	1564
45.104	1561
45.112	1556
45.12	1547
45.128	1536
45.136	1520
45.144	1500
45.152	1478
45.16	1455.99999999998
45.168	1435
45.176	1416
45.184	1399
45.192	1383
45.2	1367
45.208	1352
45.216	1334
45.224	1315.99999999999
45.232	1303
45.24	1298
45.248	1306
45.256	1335
45.264	1389
45.272	1470
45.28	1578
45.288	1712.00000000013
45.296	1866
45.304	2031
45.312	2199
45.32	2361
45.328	2509
45.336	2634
45.344	2732
45.352	2801.00000000004
45.36	2839
45.368	2846
45.376	2825
45.384	2781
45.392	2717
45.4	2639
45.408	2551
45.416	2456.99999999992
45.424	2362
45.432	2268
45.44	2177
45.448	2092
45.456	2013
45.464	1943
45.472	1884
45.48	1835.99999999996
45.488	1799
45.496	1774
45.504	1758
45.512	1747
45.52	1740
45.528	1736
45.536	1734
45.544	1731
45.552	1727
45.56	1721
45.568	1712
45.576	1701
45.584	1690
45.592	1678
45.6	1664
45.608	1647.99999999998
45.616	1630
45.624	1610
45.632	1590
45.64	1569
45.648	1549
45.656	1529
45.664	1508
45.672	1484.99999999998
45.68	1462
45.688	1439
45.696	1410
45.704	1382
45.712	1372
45.72	1383
45.728	1421
45.736	1491.00000000007
45.744	1594
45.752	1729
45.76	1893
45.768	2076
45.776	2267
45.784	2455
45.792	2629
45.8	2781.00000000012
45.808	2903
45.816	2992
45.824	3046
45.832	3066
45.84	3054
45.848	3012
45.856	2946
45.864	2860.99999999992
45.872	2761
45.88	2649
45.888	2532
45.896	2416
45.904	2304
45.912	2198
45.92	2101
45.928	2015.99999999993
45.936	1943
45.944	1884
45.952	1838
45.96	1805
45.968	1782
45.976	1765
45.984	1754
45.992	1745.99999999999
46	1739
46.008	1730
46.016	1716
46.024	1700
46.032	1681.99999999998
46.04	1662
46.048	1641
46.056	1617.99999999998
46.064	1593
46.072	1569
46.08	1544
46.088	1516
46.096	1486.99999999997
46.104	1458
46.112	1427
46.12	1397
46.128	1368
46.136	1338
46.144	1308
46.152	1280
46.16	1253.99999999998
46.168	1231
46.176	1215
46.184	1208
46.192	1216
46.2	1247
46.208	1306
46.216	1395
46.224	1515.00000000012
46.232	1662
46.24	1829
46.248	2007
46.256	2185
46.264	2353
46.272	2501
46.28	2622
46.288	2709.00000000006
46.296	2762
46.304	2782
46.312	2770
46.32	2730
46.328	2667
46.336	2585
46.344	2488
46.352	2378.9999999999
46.36	2266
46.368	2154
46.376	2046
46.384	1944
46.392	1850
46.4	1766
46.408	1695
46.416	1637.99999999996
46.424	1593
46.432	1563
46.44	1545
46.448	1535
46.456	1531
46.464	1530
46.472	1530
46.48	1530
46.488	1528
46.496	1524
46.504	1518
46.512	1509
46.52	1498
46.528	1485
46.536	1470
46.544	1451.99999999998
46.552	1432
46.56	1411
46.568	1391
46.576	1370
46.584	1347
46.592	1323
46.6	1297
46.608	1270.99999999998
46.616	1245
46.624	1221
46.632	1200
46.64	1181
46.648	1168
46.656	1162
46.664	1169
46.672	1193.00000000003
46.68	1236
46.688	1302
46.696	1392
46.704	1505
46.712	1639
46.72	1786
46.728	1938
46.736	2088.00000000013
46.744	2226
46.752	2342
46.76	2431
46.768	2492
46.776	2521
46.784	2519
46.792	2489
46.8	2434.99999999994
46.808	2363
46.816	2278
46.824	2182
46.832	2082
46.84	1982
46.848	1885
46.856	1796
46.864	1714.99999999993
46.872	1643
46.88	1582
46.888	1533
46.896	1496
46.904	1469
46.912	1451
46.92	1440
46.928	1434
46.936	1433
46.944	1436
46.952	1438
46.96	1440
46.968	1441
46.976	1440
46.984	1435
46.992	1426.99999999999
47	1416
47.008	1402
47.016	1388
47.024	1373
47.032	1355.99999999998
47.04	1336
47.048	1314
47.056	1290.99999999998
47.064	1268
47.072	1234
47.08	1213
47.088	1193
47.096	1161.99999999999
47.104	1154
47.112	1154
47.12	1195
47.128	1246
47.136	1320
47.144	1543
47.152	1686
47.16	1840.00000000017
47.168	2076
47.176	2226
47.184	2360
47.192	2469
47.2	2549
47.208	2597
47.216	2612
47.224	2594.99999999998
47.232	2550
47.24	2481
47.248	2396
47.256	2298
47.264	2195
47.272	2091
47.28	1989
47.288	1892.99999999992
47.296	1804
47.304	1725
47.312	1657
47.32	1600
47.328	1556
47.336	1524
47.344	1503
47.352	1491.99999999999
47.36	1488
47.368	1491
47.376	1497
47.384	1503
47.392	1509
47.4	1513
47.408	1515
47.416	1515
47.424	1512
47.432	1505
47.44	1496
47.448	1483
47.456	1466
47.464	1445
47.472	1423
47.48	1398.99999999998
47.488	1373
47.496	1347
47.504	1322
47.512	1297
47.52	1274
47.528	1255
47.536	1241
47.544	1230
47.552	1227
47.56	1236
47.568	1260
47.576	1307
47.584	1381
47.592	1485
47.6	1620
47.608	1778.00000000015
47.616	1952
47.624	2134
47.632	2314
47.64	2483
47.648	2632
47.656	2751
47.664	2837
47.672	2888.00000000002
47.68	2902
47.688	2882
47.696	2833
47.704	2760
47.712	2640
47.72	2497
47.728	2373
47.736	2257.9999999999
47.744	2149
47.752	2050
47.76	1960
47.768	1882
47.776	1818
47.784	1766
47.792	1725
47.8	1695.99999999998
47.808	1677
47.816	1667
47.824	1663
47.832	1662
47.84	1662
47.848	1663
47.856	1663
47.864	1661
47.872	1658
47.88	1654
47.888	1648
47.896	1639
47.904	1629
47.912	1616
47.92	1599
47.928	1578.99999999998
47.936	1556
47.944	1533
47.952	1511
47.96	1489
47.968	1467
47.976	1444
47.984	1421
47.992	1400.99999999998
48	1384
48.008	1372
48.016	1371
48.024	1385
48.032	1419.00000000004
48.04	1478
48.048	1564
48.056	1679.00000000011
48.064	1821
48.072	1984
48.08	2156
48.088	2329
48.096	2495.00000000014
48.104	2642
48.112	2762
48.12	2852.00000000006
48.128	2910
48.136	2934
48.144	2925
48.152	2887
48.16	2823.99999999994
48.168	2741
48.176	2644
48.184	2537
48.192	2427
48.2	2318
48.208	2213
48.216	2116
48.224	2027.99999999993
48.232	1953
48.24	1892
48.248	1843
48.256	1808
48.264	1782
48.272	1764
48.28	1754
48.288	1750
48.296	1749
48.304	1749
48.312	1749
48.32	1748
48.328	1744
48.336	1737
48.344	1727
48.352	1712.99999999999
48.36	1696
48.368	1677
48.376	1657
48.384	1634
48.392	1609
48.4	1583
48.408	1556
48.416	1529.99999999998
48.424	1504
48.432	1477
48.44	1451
48.448	1425
48.456	1401
48.464	1380
48.472	1363
48.48	1357
48.488	1365
48.496	1395
48.504	1452
48.512	1538
48.52	1655
48.528	1800
48.536	1963
48.544	2136.00000000015
48.552	2309
48.56	2472
48.568	2613
48.576	2727
48.584	2809
48.592	2856
48.6	2868
48.608	2845.99999999997
48.616	2793
48.624	2716
48.632	2619
48.64	2509
48.648	2392
48.656	2272
48.664	2155
48.672	2045.99999999991
48.68	1946
48.688	1857
48.696	1780
48.704	1716
48.712	1666
48.72	1628
48.728	1601
48.736	1581.99999999999
48.744	1567
48.752	1557
48.76	1550
48.768	1543
48.776	1535
48.784	1527
48.792	1520
48.8	1511.99999999999
48.808	1503
48.816	1492
48.824	1478
48.832	1461
48.84	1442
48.848	1419
48.856	1394
48.864	1368.99999999998
48.872	1344
48.88	1317
48.888	1291
48.896	1267
48.904	1245
48.912	1224
48.92	1205
48.928	1190.99999999999
48.936	1182
48.944	1180
48.952	1191
48.96	1219
48.968	1266
48.976	1337
48.984	1433
48.992	1551.00000000011
49	1689
49.008	1839
49.016	1992
49.024	2139
49.032	2272.00000000011
49.04	2382
49.048	2465
49.056	2517.00000000002
49.064	2534
49.072	2518
49.08	2474
49.088	2405
49.096	2315.99999999992
49.104	2214
49.112	2105
49.12	1992.9999999999
49.128	1885
49.136	1784
49.144	1691
49.152	1611
49.16	1543.99999999995
49.168	1488
49.176	1443
49.184	1411
49.192	1389
49.2	1377
49.208	1374
49.216	1375
49.224	1379
49.232	1383
49.24	1386
49.248	1386
49.256	1384
49.264	1381
49.272	1377
49.28	1370
49.288	1360.99999999999
49.296	1352
49.304	1339
49.312	1323
49.32	1304
49.328	1282
49.336	1258
49.344	1232
49.352	1206.99999999998
49.36	1184
49.368	1162
49.376	1143
49.384	1127
49.392	1116
49.4	1111
49.408	1116
49.416	1135.00000000002
49.424	1172
49.432	1231
49.44	1316
49.448	1425
49.456	1557
49.464	1705
49.472	1861
49.48	2016.00000000013
49.488	2161
49.496	2288
49.504	2388
49.512	2456
49.52	2490
49.528	2492
49.536	2463
49.544	2404.99999999994
49.552	2325
49.56	2230
49.568	2124
49.576	2013
49.584	1903
49.592	1800
49.6	1705
49.608	1620.99999999993
49.616	1550
49.624	1491
49.632	1446
49.64	1414
49.648	1395
49.656	1387
49.664	1385
49.672	1386
49.68	1388
49.688	1391
49.696	1394
49.704	1394
49.712	1392
49.72	1389
49.728	1385
49.736	1378.99999999999
49.744	1370
49.752	1357
49.76	1352
49.768	1348
49.776	1335
49.784	1317
49.792	1295
49.8	1271.99999999998
49.808	1248
49.816	1225
49.824	1203
49.832	1182
49.84	1165
49.848	1155
49.856	1152
49.864	1160.00000000001
49.872	1185
49.88	1232
49.888	1304
49.896	1402
49.904	1525
49.912	1671
49.92	1832
49.928	1999.00000000015
49.936	2164
49.944	2315
49.952	2446
49.96	2549
49.968	2620
49.976	2656
49.984	2657
49.992	2625.99999999996
50	2566
50.008	2483
50.016	2383
50.024	2271
50.032	2153.9999999999
50.04	2037
50.048	1927
50.056	1825.99999999992
50.064	1737
50.072	1663
50.08	1604
50.088	1560
50.096	1528.99999999998
50.104	1508
50.112	1495
50.12	1492
50.128	1494
50.136	1499
50.144	1505
50.152	1510
50.16	1514
50.168	1516
50.176	1515
50.184	1511
50.192	1502
50.2	1489
50.208	1475
50.216	1460
50.224	1442.99999999998
50.232	1426
50.24	1408
50.248	1389
50.256	1370
50.264	1350
50.272	1330
50.28	1311
50.288	1294.99999999999
50.296	1282
50.304	1274
50.312	1275
50.32	1290
50.328	1325
50.336	1387
50.344	1478
50.352	1598.00000000012
50.36	1745
50.368	1914
50.376	2095
50.384	2277
50.392	2449
50.4	2603
50.408	2729
50.416	2822.00000000006
50.424	2879
50.432	2899
50.44	2885
50.448	2841
50.456	2769
50.464	2675
50.472	2567
50.48	2450.9999999999
50.488	2333
50.496	2217
50.504	2107
50.512	2006
50.52	1916
50.528	1840
50.536	1778
50.544	1730.99999999997
50.552	1699
50.56	1679
50.568	1668
50.576	1663
50.584	1664
50.592	1667
50.6	1671
50.608	1674
50.616	1674
50.624	1671
50.632	1665
50.64	1656
50.648	1643
50.656	1627
50.664	1609
50.672	1587.99999999998
50.68	1564
50.688	1541
50.696	1518
50.704	1493
50.712	1467
50.72	1441
50.728	1418
50.736	1393.99999999998
50.744	1371
50.752	1352
50.76	1338
50.768	1336
50.776	1353
50.784	1395
50.792	1466
50.8	1570.00000000011
50.808	1708
50.816	1874
50.824	2058
50.832	2250
50.84	2439
50.848	2613
50.856	2762
50.864	2879.00000000009
50.872	2960
50.88	3000
50.888	3001
50.896	2968
50.904	2903
50.912	2813
50.92	2704
50.928	2581.99999999989
50.936	2453
50.944	2323
50.952	2197
50.96	2080
50.968	1975
50.976	1885
50.984	1809
50.992	1746.99999999995
51	1700
51.008	1665
51.016	1641
51.024	1627
51.032	1618.99999999999
51.04	1614
51.048	1610
51.056	1606
51.064	1601
51.072	1593
51.08	1580
51.088	1564
51.096	1546.99999999998
51.104	1528
51.112	1504
51.12	1475.99999999997
51.128	1446
51.136	1416
51.144	1385
51.152	1354
51.16	1322.99999999997
51.168	1293
51.176	1264
51.184	1235.99999999998
51.192	1209
51.2	1185
51.208	1166
51.216	1153
51.224	1150
51.232	1162
51.24	1196
51.248	1257
51.256	1350
51.264	1472
51.272	1620
51.28	1788
51.288	1966.00000000016
51.296	2143
51.304	2308
51.312	2449
51.32	2560
51.328	2634
51.336	2670
51.344	2667
51.352	2626.99999999995
51.36	2555
51.368	2458
51.376	2343
51.384	2218
51.392	2088
51.4	1959
51.408	1838
51.416	1727.99999999991
51.424	1632
51.432	1551
51.44	1485
51.448	1434
51.456	1395
51.464	1367
51.472	1348
51.48	1335.99999999999
51.488	1330
51.496	1328
51.504	1329
51.512	1331
51.52	1332
51.528	1331
51.536	1328
51.544	1320.99999999999
51.552	1311
51.56	1299
51.568	1286
51.576	1270
51.584	1250
51.592	1226
51.6	1200
51.608	1173.99999999998
51.616	1148
51.624	1122
51.632	1097
51.64	1073
51.648	1051
51.656	1033
51.664	1020
51.672	1013
51.68	1015
51.688	1031
51.696	1067
51.704	1127
51.712	1216
51.72	1333
51.728	1474
51.736	1632.00000000014
51.744	1799
51.752	1966
51.76	2121
51.768	2255
51.776	2358
51.784	2425
51.792	2456
51.8	2447.99999999999
51.808	2402
51.816	2329
51.824	2242
51.832	2142
51.84	2035
51.848	1927
51.856	1821
51.864	1722.99999999992
51.872	1636
51.88	1560
51.888	1498
51.896	1449
51.904	1412
51.912	1386
51.92	1370
51.928	1360.99999999999
51.936	1357
51.944	1356
51.952	1358
51.96	1363
51.968	1369
51.976	1374
51.984	1378
51.992	1380
52	1379
52.008	1375
52.016	1368
52.024	1358
52.032	1343.99999999999
52.04	1327
52.048	1309
52.056	1289.99999999998
52.064	1270
52.072	1249
52.08	1227
52.088	1206
52.096	1186.99999999998
52.104	1170
52.112	1155
52.12	1147
52.128	1148
52.136	1159
52.144	1186
52.152	1234
52.16	1307.00000000007
52.168	1406
52.176	1529
52.184	1673.00000000013
52.192	1830
52.2	1989
52.208	2140
52.216	2273
52.224	2382.00000000008
52.232	2461
52.24	2507
52.248	2516
52.256	2490
52.264	2433
52.272	2350
52.28	2250
52.288	2139.9999999999
52.296	2025
52.304	1912
52.312	1805
52.32	1710
52.328	1628
52.336	1560
52.344	1505
52.352	1463.99999999997
52.36	1435
52.368	1418
52.376	1409
52.384	1406
52.392	1406
52.4	1409
52.408	1413
52.416	1416
52.424	1418
52.432	1418
52.44	1416
52.448	1411
52.456	1404
52.464	1394
52.472	1381
52.48	1366.99999999999
52.488	1350
52.496	1329
52.504	1306
52.512	1281
52.52	1258
52.528	1235
52.536	1213
52.544	1193.99999999998
52.552	1178
52.56	1165
52.568	1158
52.576	1159
52.584	1172
52.592	1202
52.6	1256
52.608	1337.00000000008
52.616	1447
52.624	1583
52.632	1739
52.64	1907
52.648	2077
52.656	2238
52.664	2380
52.672	2496.00000000009
52.68	2579
52.688	2626
52.696	2637
52.704	2615
52.712	2561
52.72	2480
52.728	2378
52.736	2263.9999999999
52.744	2146
52.752	2029
52.76	1916
52.768	1810
52.776	1718
52.784	1641
52.792	1580
52.8	1533.99999999997
52.808	1502
52.816	1483
52.824	1474
52.832	1471
52.84	1474
52.848	1479
52.856	1487
52.864	1496.00000000001
52.872	1503
52.88	1508
52.888	1510
52.896	1509
52.904	1505
52.912	1498
52.92	1488
52.928	1475.99999999999
52.936	1460
52.944	1441
52.952	1421
52.96	1400
52.968	1379
52.976	1358
52.984	1336
52.992	1314.99999999998
53	1296
53.008	1279
53.016	1267
53.024	1264
53.032	1275.00000000001
53.04	1308
53.048	1369
53.056	1464.0000000001
53.064	1591
53.072	1746
53.08	1922
53.088	2109
53.096	2293.00000000016
53.104	2462
53.112	2606
53.12	2718.00000000008
53.128	2794
53.136	2832
53.144	2832
53.152	2798
53.16	2733.99999999993
53.168	2645
53.176	2539
53.184	2420.99999999989
53.192	2296
53.2	2170
53.208	2050
53.216	1940
53.224	1842.99999999992
53.232	1761
53.24	1695
53.248	1644.99999999996
53.256	1609
53.264	1585
53.272	1570
53.28	1561
53.288	1558
53.296	1558
53.304	1559
53.312	1561
53.32	1562
53.328	1560
53.336	1556
53.344	1549
53.352	1539.99999999999
53.36	1528
53.368	1514
53.376	1498
53.384	1480
53.392	1459
53.4	1436
53.408	1411
53.416	1384.99999999998
53.424	1357
53.432	1328
53.44	1298
53.448	1269
53.456	1243
53.464	1221
53.472	1208
53.48	1210
53.488	1234
53.496	1285
53.504	1369
53.512	1487
53.52	1635
53.528	1807
53.536	1993
53.544	2178.00000000016
53.552	2349
53.56	2497
53.568	2613
53.576	2692
53.584	2730
53.592	2729
53.6	2693
53.608	2623.99999999993
53.616	2529
53.624	2415
53.632	2287
53.64	2154
53.648	2021
53.656	1894
53.664	1777
53.672	1673.99999999992
53.68	1586
53.688	1514
53.696	1457
53.704	1415
53.712	1386
53.72	1367
53.728	1355
53.736	1347.99999999999
53.744	1343
53.752	1340
53.76	1337
53.768	1333
53.776	1328
53.784	1321
53.792	1313
53.8	1302.99999999999
53.808	1291
53.816	1277
53.824	1261
53.832	1243
53.84	1221
53.848	1198
53.856	1162
53.864	1117.99999999996
53.872	1082
53.88	1049
53.888	1019
53.896	993
53.904	970
53.912	950
53.92	936
53.928	932
53.936	944
53.944	978
53.952	1040
53.96	1133
53.968	1259
53.976	1414
53.984	1589
53.992	1777.00000000017
54	1964
54.008	2136
54.016	2284
54.024	2398
54.032	2471.00000000004
54.04	2502
54.048	2492
54.056	2443.99999999995
54.064	2363
54.072	2257
54.08	2133
54.088	2000
54.096	1863.99999999988
54.104	1732
54.112	1611
54.12	1503.99999999991
54.128	1410
54.136	1333
54.144	1275
54.152	1232
54.16	1199.99999999998
54.168	1179
54.176	1166
54.184	1159
54.192	1160
54.2	1163
54.208	1168
54.216	1173
54.224	1177
54.232	1179
54.24	1179
54.248	1176
54.256	1170
54.264	1161
54.272	1149
54.28	1135
54.288	1118.99999999998
54.296	1100
54.304	1078
54.312	1055
54.32	1031
54.328	1007
54.336	984
54.344	961
54.352	940.999999999983
54.36	923
54.368	908
54.376	899
54.384	903
54.392	925
54.4	971
54.408	1047
54.416	1156.00000000011
54.424	1295
54.432	1460
54.44	1642
54.448	1829
54.456	2008
54.464	2167
54.472	2297
54.48	2388.00000000006
54.488	2436
54.496	2441
54.504	2408
54.512	2341
54.52	2247
54.528	2133
54.536	2006
54.544	1873.99999999988
54.552	1744
54.56	1622
54.568	1512
54.576	1416
54.584	1337
54.592	1276
54.6	1230
54.608	1198.99999999998
54.616	1181
54.624	1172
54.632	1170
54.64	1174
54.648	1181
54.656	1189
54.664	1196
54.672	1201
54.68	1205
54.688	1206
54.696	1203
54.704	1198
54.712	1189
54.72	1177
54.728	1161
54.736	1141.99999999998
54.744	1122
54.752	1101
54.76	1080
54.768	1058
54.776	1034
54.784	1010
54.792	988
54.8	966.999999999982
54.808	948
54.816	932
54.824	924
54.832	929
54.84	953
54.848	1004
54.856	1088
54.864	1205.00000000012
54.872	1355
54.88	1531
54.888	1722
54.896	1916
54.904	2101
54.912	2266
54.92	2399
54.928	2494.00000000006
54.936	2547
54.944	2558
54.952	2527
54.96	2462
54.968	2367
54.976	2251
54.984	2121
54.992	1983.99999999988
55	1848
55.008	1719
55.016	1602
55.024	1500
55.032	1414.99999999993
55.04	1346
55.048	1293
55.056	1257.99999999998
55.064	1236
55.072	1225
55.08	1223
55.088	1228
55.096	1236.00000000001
55.104	1244
55.112	1252
55.12	1259
55.128	1263
55.136	1263
55.144	1260
55.152	1254
55.16	1245.99999999999
55.168	1236
55.176	1224
55.184	1209.99999999999
55.192	1193
55.2	1173
55.208	1152
55.216	1130
55.224	1107.99999999998
55.232	1087
55.24	1067
55.248	1047.99999999998
55.256	1029
55.264	1014
55.272	1007
55.28	1016
55.288	1048.00000000004
55.296	1111
55.304	1210
55.312	1346
55.32	1516
55.328	1712
55.336	1923
55.344	2134
55.352	2330.00000000016
55.36	2499
55.368	2631
55.376	2719
55.384	2763
55.392	2766
55.4	2730
55.408	2660
55.416	2561.9999999999
55.424	2444
55.432	2315
55.44	2182
55.448	2050
55.456	1926
55.464	1812
55.472	1711
55.48	1624.99999999993
55.488	1555
55.496	1502
55.504	1462
55.512	1435
55.52	1419
55.528	1411
55.536	1409
55.544	1410
55.552	1412
55.56	1414
55.568	1415
55.576	1416
55.584	1415
55.592	1412
55.6	1405
55.608	1395.99999999999
55.616	1385
55.624	1373
55.632	1358
55.64	1339
55.648	1317
55.656	1292
55.664	1267
55.672	1243.99999999998
55.68	1220
55.688	1196
55.696	1170
55.704	1144
55.712	1123
55.72	1111
55.728	1113
55.736	1138.00000000003
55.744	1195
55.752	1291
55.76	1426
55.768	1598
55.776	1801
55.784	2021
55.792	2239
55.8	2441.00000000017
55.808	2614
55.816	2745
55.824	2830
55.832	2869
55.84	2866
55.848	2824
55.856	2750
55.864	2649.9999999999
55.872	2531
55.88	2399
55.888	2261
55.896	2123
55.904	2028
55.912	1966
55.92	1894
55.928	1822.99999999994
55.936	1761
55.944	1711
55.952	1672
55.96	1642
55.968	1622
55.976	1609
55.984	1601
55.992	1596
56	1592
56.008	1589
56.016	1586
56.024	1581
56.032	1574.99999999999
56.04	1567
56.048	1555
56.056	1539.99999999999
56.064	1522
56.072	1502
56.08	1481
56.088	1458
56.096	1432.99999999998
56.104	1407
56.112	1379
56.12	1350.99999999998
56.128	1323
56.136	1296
56.144	1269
56.152	1244
56.16	1219.99999999998
56.168	1200
56.176	1188
56.184	1190
56.192	1215
56.2	1269
56.208	1356
56.216	1477
56.224	1628.00000000014
56.232	1799
56.24	1981
56.248	2158.00000000015
56.256	2316
56.264	2446
56.272	2541
56.28	2598
56.288	2615
56.296	2597
56.304	2548
56.312	2471.99999999992
56.32	2375
56.328	2265
56.336	2147
56.344	2025
56.352	1905.9999999999
56.36	1796
56.368	1698
56.376	1612
56.384	1541
56.392	1486
56.4	1442
56.408	1410
56.416	1388.99999999999
56.424	1376
56.432	1368
56.44	1364
56.448	1362
56.456	1361
56.464	1361
56.472	1361
56.48	1360
56.488	1357
56.496	1354
56.504	1349
56.512	1343
56.52	1335
56.528	1324
56.536	1310
56.544	1293.99999999998
56.552	1276
56.56	1257
56.568	1238
56.576	1217
56.584	1196
56.592	1175
56.6	1156
56.608	1136.99999999998
56.616	1120
56.624	1107
56.632	1102
56.64	1109
56.648	1136
56.656	1187
56.664	1268
56.672	1379.00000000011
56.68	1518
56.688	1675
56.696	1841
56.704	2005
56.712	2155
56.72	2280
56.728	2372
56.736	2428.00000000003
56.744	2448
56.752	2432
56.76	2385
56.768	2315
56.776	2226
56.784	2124
56.792	2016
56.8	1906.9999999999
56.808	1801
56.816	1703
56.824	1615
56.832	1539
56.84	1477
56.848	1428
56.856	1392
56.864	1367.99999999998
56.872	1355
56.88	1352
56.888	1354
56.896	1359
56.904	1365
56.912	1370
56.92	1374
56.928	1377
56.936	1379
56.944	1379
56.952	1377
56.96	1373
56.968	1366
56.976	1355
56.984	1342
56.992	1325.99999999998
57	1308
57.008	1288
57.016	1268
57.024	1248
57.032	1227.99999999998
57.04	1210
57.048	1193
57.056	1175.99999999998
57.064	1159
57.072	1147
57.08	1141
57.088	1144
57.096	1161.00000000002
57.104	1200
57.112	1265
57.12	1360.0000000001
57.128	1483
57.136	1631
57.144	1794
57.152	1960
57.16	2117.00000000013
57.168	2255
57.176	2365
57.184	2441.00000000005
57.192	2482
57.2	2487
57.208	2460
57.216	2404
57.224	2324.99999999992
57.232	2230
57.24	2124
57.248	2012.9999999999
57.256	1903
57.264	1799
57.272	1705
57.28	1623
57.288	1554.99999999995
57.296	1502
57.304	1462
57.312	1434.99999999998
57.32	1419
57.328	1411
57.336	1410
57.344	1413
57.352	1420.00000000001
57.36	1428
57.368	1436
57.376	1443
57.384	1448
57.392	1449
57.4	1448
57.408	1443
57.416	1433.99999999999
57.424	1421
57.432	1406
57.44	1378
57.448	1360
57.456	1342
57.464	1304
57.472	1284
57.48	1265.99999999998
57.488	1233
57.496	1217
57.504	1202
57.512	1196
57.52	1217
57.528	1262
57.536	1383
57.544	1506.00000000012
57.552	1657
57.56	1829
57.568	2008
57.576	2182
57.584	2341
57.592	2473
57.6	2570
57.608	2631.00000000003
57.616	2656
57.624	2645
57.632	2603
57.64	2534
57.648	2445
57.656	2345
57.664	2238
57.672	2127.9999999999
57.68	2022
57.688	1924
57.696	1835
57.704	1758
57.712	1694
57.72	1644
57.728	1609
57.736	1587.99999999999
57.744	1577
57.752	1575
57.76	1578
57.768	1583
57.776	1591
57.784	1598
57.792	1602
57.8	1604
57.808	1604
57.816	1602
57.824	1597
57.832	1590
57.84	1581
57.848	1572
57.856	1561
57.864	1548.99999999999
57.872	1534
57.88	1516
57.888	1498
57.896	1480
57.904	1463
57.912	1447
57.92	1453
57.928	1469
57.936	1466
57.944	1456
57.952	1449
57.96	1453
57.968	1477
57.976	1532
57.984	1625
57.992	1758.00000000013
58	1926
58.008	2122
58.016	2331
58.024	2537
58.032	2725.00000000015
58.04	2882
58.048	2999
58.056	3075.00000000004
58.064	3108
58.072	3100
58.08	3057
58.088	2986
58.096	2890.99999999991
58.104	2781
58.112	2662
58.12	2538.99999999989
58.128	2419
58.136	2305
58.144	2200
58.152	2105
58.16	2024.99999999994
58.168	1960
58.176	1909
58.184	1872.99999999997
58.192	1850
58.2	1838
58.208	1833
58.216	1832
58.224	1833
58.232	1835
58.24	1836
58.248	1834
58.256	1830
58.264	1825
58.272	1817
58.28	1805
58.288	1790.99999999999
58.296	1774
58.304	1754
58.312	1733.99999999998
58.32	1713
58.328	1692
58.336	1670
58.344	1648
58.352	1625.99999999998
58.36	1605
58.368	1585
58.376	1564
58.384	1542
58.392	1519
58.4	1498
58.408	1483
58.416	1482
58.424	1502
58.432	1553
58.44	1643
58.448	1771
58.456	1934
58.464	2124
58.472	2327
58.48	2527.00000000017
58.488	2707
58.496	2856
58.504	2964
58.512	3027
58.52	3049
58.528	3032
58.536	2980
58.544	2900.99999999992
58.552	2802
58.56	2688
58.568	2565
58.576	2439
58.584	2313
58.592	2193
58.6	2085
58.608	1988.99999999992
58.616	1907
58.624	1840
58.632	1786
58.64	1746
58.648	1719
58.656	1702
58.664	1691
58.672	1686
58.68	1683
58.688	1682
58.696	1681
58.704	1679
58.712	1673
58.72	1664
58.728	1651
58.736	1634.99999999998
58.744	1616
58.752	1595
58.76	1574
58.768	1552
58.776	1530
58.784	1507
58.792	1484
58.8	1460.99999999998
58.808	1439
58.816	1416
58.824	1392
58.832	1369
58.84	1347
58.848	1325
58.856	1305
58.864	1288.99999999999
58.872	1281
58.88	1287
58.888	1316
58.896	1373
58.904	1462
58.912	1585
58.92	1739
58.928	1915.00000000016
58.936	2100
58.944	2279
58.952	2440
58.96	2569
58.968	2662
58.976	2716
58.984	2731
58.992	2710.99999999997
59	2662
59.008	2587
59.016	2492
59.024	2384
59.032	2269.9999999999
59.04	2154
59.048	2041
59.056	1936.99999999991
59.064	1843
59.072	1760
59.08	1690
59.088	1636
59.096	1596.99999999997
59.104	1571
59.112	1556
59.12	1549
59.128	1549
59.136	1553
59.144	1559
59.152	1565
59.16	1570
59.168	1573
59.176	1575
59.184	1574
59.192	1569
59.2	1561
59.208	1549
59.216	1534
59.224	1516.99999999998
59.232	1499
59.24	1480
59.248	1461.99999999998
59.256	1444
59.264	1424
59.272	1403
59.28	1382
59.288	1359.99999999998
59.296	1339
59.304	1319
59.312	1300.99999999999
59.32	1286
59.328	1275
59.336	1275
59.344	1291
59.352	1330.00000000004
59.36	1397
59.368	1496
59.376	1626.00000000013
59.384	1782
59.392	1953
59.4	2128
59.408	2294
59.416	2440.00000000012
59.424	2556
59.432	2636
59.44	2677
59.448	2681
59.456	2652
59.464	2592
59.472	2509
59.48	2411.99999999991
59.488	2305
59.496	2195
59.504	2087
59.512	1985
59.52	1891
59.528	1808
59.536	1737
59.544	1678.99999999995
59.552	1634
59.56	1603
59.568	1585
59.576	1577
59.584	1577
59.592	1582
59.6	1589
59.608	1598.00000000001
59.616	1606
59.624	1612
59.632	1615
59.64	1615
59.648	1612
59.656	1606
59.664	1597
59.672	1585.99999999999
59.68	1572
59.688	1555
59.696	1536
59.704	1513
59.712	1489
59.72	1465
59.728	1441
59.736	1417.99999999998
59.744	1396
59.752	1374
59.76	1352
59.768	1332
59.776	1315
59.784	1303
59.792	1299
59.8	1310.00000000001
59.808	1344
59.816	1408
59.824	1506
59.832	1639
59.84	1802
59.848	1984
59.856	2173
59.864	2356.00000000015
59.872	2519
59.88	2653
59.888	2753
59.896	2814
59.904	2833
59.912	2815
59.92	2765
59.928	2689.99999999993
59.936	2595
59.944	2489
59.952	2377
59.96	2263
59.968	2115
59.976	1958
59.984	1841
59.992	1749.99999999993
60	1677
60.008	1622
60.016	1582
60.024	1555
60.032	1540.99999999999
60.04	1537
60.048	1539
60.056	1545.00000000001
60.064	1554
60.072	1562
60.08	1568
60.088	1571
60.096	1572
60.104	1571
60.112	1569
60.12	1563.99999999999
60.128	1555
60.136	1543
60.144	1527
60.152	1509
60.16	1488.99999999998
60.168	1468
60.176	1447
60.184	1427.99999999998
60.192	1410
60.2	1392
60.208	1374
60.216	1356
60.224	1338.99999999999
60.232	1325
60.24	1314
60.248	1309
60.256	1316
60.264	1342
60.272	1397
60.28	1488
60.288	1613.00000000012
60.296	1767
60.304	1943
60.312	2131.00000000017
60.32	2316
60.328	2484
60.336	2626
60.344	2735
60.352	2806.00000000004
60.36	2836
60.368	2830
60.376	2791.99999999996
60.384	2728
60.392	2645
60.4	2549
60.408	2444
60.416	2335.99999999991
60.424	2231
60.432	2132
60.44	2042
60.448	1963
60.456	1896
60.464	1841
60.472	1800
60.48	1769.99999999998
60.488	1750
60.496	1740
60.504	1737
60.512	1740
60.52	1746
60.528	1752
60.536	1758
60.544	1763
60.552	1765
60.56	1764
60.568	1759
60.576	1750
60.584	1736
60.592	1718
60.6	1698
60.608	1676.99999999998
60.616	1655
60.624	1631
60.632	1606
60.64	1581
60.648	1558
60.656	1536
60.664	1516
60.672	1496.99999999998
60.68	1478
60.688	1458
60.696	1438
60.704	1422
60.712	1416
60.72	1427
60.728	1465
60.736	1537.00000000008
60.744	1646
60.752	1791
60.76	1968
60.768	2161
60.776	2356
60.784	2540
60.792	2700
60.8	2826.00000000009
60.808	2913
60.816	2959
60.824	2966
60.832	2938
60.84	2882
60.848	2804
60.856	2710
60.864	2607.99999999991
60.872	2502
60.88	2395
60.888	2292
60.896	2193
60.904	2102
60.912	2021
60.92	1952
60.928	1894.99999999996
60.936	1852
60.944	1821
60.952	1803
60.96	1795
60.968	1793
60.976	1795
60.984	1799
60.992	1802
61	1802
61.008	1799
61.016	1794
61.024	1784
61.032	1769.99999999999
61.04	1753
61.048	1732
61.056	1706.99999999998
61.064	1681
61.072	1653
61.08	1623
61.088	1592
61.096	1559.99999999997
61.104	1529
61.112	1498
61.12	1465.99999999997
61.128	1437
61.136	1410
61.144	1381
61.152	1353
61.16	1328.99999999998
61.168	1310
61.176	1298
61.184	1301
61.192	1328
61.2	1384
61.208	1473
61.216	1596
61.224	1748.00000000014
61.232	1919
61.24	2097
61.248	2269.00000000014
61.256	2422
61.264	2546
61.272	2636
61.28	2689
61.288	2705
61.296	2686
61.304	2637
61.312	2565.99999999993
61.32	2477
61.328	2377
61.336	2271
61.344	2164
61.352	2060.99999999991
61.36	1965
61.368	1876
61.376	1795.99999999993
61.384	1727
61.392	1669
61.4	1623
61.408	1590
61.416	1566.99999999999
61.424	1555
61.432	1552
61.44	1555
61.448	1561
61.456	1566
61.464	1569
61.472	1570
61.48	1567
61.488	1562
61.496	1555
61.504	1546
61.512	1533
61.52	1518
61.528	1500
61.536	1480
61.544	1456.99999999998
61.552	1433
61.56	1408
61.568	1381
61.576	1355
61.584	1332
61.592	1311
61.6	1291
61.608	1269.99999999998
61.616	1249
61.624	1231
61.632	1214
61.64	1200
61.648	1195
61.656	1203
61.664	1232
61.672	1289.00000000006
61.68	1375
61.688	1489
61.696	1628
61.704	1783
61.712	1944
61.72	2097
61.728	2233
61.736	2344.00000000008
61.744	2424
61.752	2471
61.76	2486
61.768	2471
61.776	2430
61.784	2367
61.792	2289
61.8	2199.99999999992
61.808	2104
61.816	2006
61.824	1912
61.832	1824
61.84	1744
61.848	1673
61.856	1612
61.864	1560.99999999996
61.872	1521
61.88	1491
61.888	1471
61.896	1460
61.904	1455
61.912	1457
61.92	1463
61.928	1470.00000000001
61.936	1477
61.944	1484
61.952	1488
61.96	1490
61.968	1491
61.976	1490
61.984	1483
61.992	1471.99999999999
62	1458
62.008	1442
62.016	1415
62.024	1382
62.032	1352.99999999998
62.04	1327
62.048	1302
62.056	1278.99999999998
62.064	1259
62.072	1239
62.08	1220
62.088	1202
62.096	1185.99999999999
62.104	1173
62.112	1166
62.12	1169
62.128	1191
62.136	1237
62.144	1312
62.152	1418
62.16	1550.00000000013
62.168	1701
62.176	1862
62.184	2020.00000000013
62.192	2165
62.2	2288
62.208	2382
62.216	2445
62.224	2476
62.232	2476
62.24	2449
62.248	2399.99999999995
62.256	2333
62.264	2253
62.272	2164
62.28	2071
62.288	1978.99999999992
62.296	1890
62.304	1806
62.312	1729.99999999994
62.32	1664
62.328	1608
62.336	1562
62.344	1527
62.352	1502.99999999998
62.36	1487
62.368	1479
62.376	1479
62.384	1484
62.392	1492
62.4	1503
62.408	1514
62.416	1521
62.424	1525
62.432	1526
62.44	1523
62.448	1518
62.456	1509
62.464	1498
62.472	1485
62.48	1468.99999999998
62.488	1451
62.496	1432
62.504	1411
62.512	1391
62.52	1370
62.528	1347
62.536	1326
62.544	1305.99999999998
62.552	1285
62.56	1265
62.568	1248
62.576	1236
62.584	1236
62.592	1255
62.6	1300
62.608	1376.00000000008
62.616	1485
62.624	1624
62.632	1785
62.64	1959
62.648	2133
62.656	2296
62.664	2437
62.672	2549.00000000008
62.68	2629
62.688	2675
62.696	2687
62.704	2668
62.712	2623
62.72	2558
62.728	2476
62.736	2383.99999999992
62.744	2287
62.752	2191
62.76	2098
62.768	2010
62.776	1929
62.784	1858
62.792	1797
62.8	1745.99999999996
62.808	1706
62.816	1678
62.824	1661
62.832	1654
62.84	1653
62.848	1658
62.856	1665
62.864	1673.00000000001
62.872	1682
62.88	1690
62.888	1695
62.896	1697
62.904	1695
62.912	1688
62.92	1676
62.928	1661.99999999999
62.936	1646
62.944	1629
62.952	1611
62.96	1590
62.968	1568
62.976	1546
62.984	1524
62.992	1502.99999999998
63	1483
63.008	1462
63.016	1440
63.024	1418
63.032	1396.99999999998
63.04	1381
63.048	1375
63.056	1388.00000000002
63.064	1428
63.072	1501
63.08	1609
63.088	1749
63.096	1914.00000000015
63.104	2092
63.112	2270
63.12	2437.00000000014
63.128	2585
63.136	2703
63.144	2786
63.152	2834
63.16	2849
63.168	2834
63.176	2791
63.184	2726.99999999994
63.192	2647
63.2	2557
63.208	2461
63.216	2364
63.224	2269.99999999992
63.232	2180
63.24	2096
63.248	2020.99999999994
63.256	1958
63.264	1905
63.272	1862
63.28	1828
63.288	1803.99999999998
63.296	1789
63.304	1781
63.312	1778
63.32	1779
63.328	1784
63.336	1789
63.344	1793
63.352	1794
63.36	1791
63.368	1785
63.376	1774.99999999999
63.384	1761
63.392	1745
63.4	1727
63.408	1706
63.416	1681.99999999998
63.424	1656
63.432	1629
63.44	1600.99999999997
63.448	1572
63.456	1543
63.464	1515
63.472	1487
63.48	1458.99999999997
63.488	1430
63.496	1401
63.504	1375
63.512	1354
63.52	1345
63.528	1357
63.536	1396
63.544	1467.00000000008
63.552	1573
63.56	1710
63.568	1869
63.576	2040
63.584	2209
63.592	2365
63.6	2498
63.608	2601.00000000007
63.616	2672
63.624	2709
63.632	2714
63.64	2689
63.648	2640
63.656	2571
63.664	2489
63.672	2396.99999999992
63.68	2299
63.688	2200
63.696	2104
63.704	2014
63.712	1931
63.72	1857
63.728	1793
63.736	1738.99999999996
63.744	1694
63.752	1658
63.76	1632
63.768	1615
63.776	1605
63.784	1599
63.792	1597
63.8	1597
63.808	1597
63.816	1596
63.824	1593
63.832	1589
63.84	1582
63.848	1571
63.856	1558
63.864	1541.99999999998
63.872	1523
63.88	1503
63.888	1481
63.896	1456
63.904	1429
63.912	1403
63.92	1377
63.928	1350.99999999998
63.936	1327
63.944	1305
63.952	1284
63.96	1264
63.968	1244
63.976	1223
63.984	1205
63.992	1193
64	1192
64.008	1209
64.016	1253
64.024	1326
64.032	1428
64.04	1555
64.048	1700
64.056	1853
64.064	2017.00000000029
64.072	2178
64.08	2312
64.088	2415.00000000015
64.096	2485
64.104	2522
64.112	2527
64.12	2504
64.128	2456
64.136	2389
64.144	2308
64.152	2217
64.16	2122
64.168	2026
64.176	1933
64.184	1845
64.192	1763.99999999986
64.2	1690
64.208	1625
64.216	1570.99999999991
64.224	1527
64.232	1494
64.24	1470
64.248	1454
64.256	1446
64.264	1444
64.272	1446
64.28	1451
64.288	1458
64.296	1465
64.304	1471
64.312	1475
64.32	1477
64.328	1475
64.336	1469
64.344	1459.99999999998
64.352	1446
64.36	1427
64.368	1406
64.376	1383
64.384	1359
64.392	1334
64.4	1309
64.408	1285
64.416	1261
64.424	1239
64.432	1219
64.44	1199
64.448	1178.99999999997
64.456	1160
64.464	1143
64.472	1136
64.48	1147
64.488	1182
64.496	1245
64.504	1339
64.512	1461
64.52	1606
64.528	1766
64.536	1932
64.544	2091
64.552	2234
64.56	2353
64.568	2444
64.576	2502.00000000006
64.584	2528
64.592	2525
64.6	2496
64.608	2444
64.616	2375
64.624	2295
64.632	2208
64.64	2116
64.648	2024
64.656	1935
64.664	1853
64.672	1778
64.68	1709
64.688	1650
64.696	1599
64.704	1557.99999999994
64.712	1527
64.72	1507
64.728	1496
64.736	1491
64.744	1492
64.752	1496
64.76	1501
64.768	1505
64.776	1507
64.784	1507
64.792	1505
64.8	1502
64.808	1497
64.816	1491
64.824	1482
64.832	1468.99999999998
64.84	1455
64.848	1437
64.856	1415
64.864	1393
64.872	1372
64.88	1350
64.888	1328
64.896	1306
64.904	1284
64.912	1263
64.92	1242
64.928	1221
64.936	1206
64.944	1200
64.952	1211
64.96	1246.00000000008
64.968	1310
64.976	1407
64.984	1535
64.992	1687
65	1854
65.008	2027
65.016	2195
65.024	2346
65.032	2474
65.04	2575
65.048	2646
65.056	2685
65.064	2694
65.072	2675
65.08	2632
65.088	2567.99999999988
65.096	2492
65.104	2408
65.112	2317
65.12	2224
65.128	2133
65.136	2047
65.144	1967
65.152	1895
65.16	1832
65.168	1777
65.176	1732
65.184	1696
65.192	1668.99999999996
65.2	1651
65.208	1640
65.216	1636
65.224	1637
65.232	1640
65.24	1644
65.248	1648
65.256	1650
65.264	1651
65.272	1650
65.28	1645
65.288	1639
65.296	1631
65.304	1621
65.312	1609
65.32	1593.99999999997
65.328	1575
65.336	1553
65.344	1529.99999999996
65.352	1508
65.36	1487
65.368	1467
65.376	1445
65.384	1422
65.392	1400
65.4	1380
65.408	1366
65.416	1364
65.424	1379
65.432	1419
65.44	1491
65.448	1597.00000000021
65.456	1735
65.464	1897
65.472	2073.00000000032
65.48	2255
65.488	2431
65.496	2588
65.504	2718
65.512	2818
65.52	2885
65.528	2920
65.536	2925
65.544	2902
65.552	2853
65.56	2784
65.568	2699
65.576	2605.99999999983
65.584	2508
65.592	2411
65.6	2317
65.608	2227
65.616	2143
65.624	2066
65.632	1997
65.64	1937
65.648	1887
65.656	1848
65.664	1819
65.672	1800
65.68	1787
65.688	1780
65.696	1776
65.704	1774
65.712	1773
65.72	1772
65.728	1769
65.736	1766
65.744	1762
65.752	1756
65.76	1746
65.768	1732
65.776	1715
65.784	1696
65.792	1673
65.8	1648
65.808	1621
65.816	1594
65.824	1565
65.832	1536.99999999995
65.84	1511
65.848	1486
65.856	1460
65.864	1434
65.872	1409
65.88	1389
65.888	1379
65.896	1383
65.904	1410
65.912	1469
65.92	1563
65.928	1690
65.936	1846
65.944	2021
65.952	2204
65.96	2382.0000000003
65.968	2543
65.976	2680
65.984	2787
65.992	2862
66	2903
66.008	2913
66.016	2894
66.024	2849
66.032	2785
66.04	2705
66.048	2611
66.056	2510
66.064	2407.99999999982
66.072	2307
66.08	2210
66.088	2118.99999999984
66.096	2035
66.104	1958
66.112	1886
66.12	1821
66.128	1769
66.136	1729
66.144	1699
66.152	1677
66.16	1661
66.168	1650
66.176	1642
66.184	1636
66.192	1628.99999999999
66.2	1621
66.208	1613
66.216	1603.99999999998
66.224	1593
66.232	1580
66.24	1562
66.248	1542
66.256	1520
66.264	1494
66.272	1466
66.28	1438
66.288	1409
66.296	1378
66.304	1347
66.312	1319
66.32	1290.99999999995
66.328	1263
66.336	1234
66.344	1203.99999999995
66.352	1176
66.36	1152
66.368	1136
66.376	1134
66.384	1154
66.392	1204
66.4	1288
66.408	1407
66.416	1557
66.424	1730
66.432	1916
66.44	2102
66.448	2277.00000000029
66.456	2432
66.464	2558
66.472	2651.00000000013
66.48	2709
66.488	2733
66.496	2727
66.504	2693
66.512	2635
66.52	2560
66.528	2470
66.536	2371
66.544	2269
66.552	2167
66.56	2067
66.568	1971
66.576	1882.99999999985
66.584	1803
66.592	1732
66.6	1671
66.608	1621
66.616	1581
66.624	1551
66.632	1529
66.64	1514
66.648	1505
66.656	1501
66.664	1499
66.672	1497
66.68	1495
66.688	1493
66.696	1489
66.704	1481.99999999999
66.712	1472
66.72	1460
66.728	1446
66.736	1430
66.744	1411
66.752	1390
66.76	1366
66.768	1342
66.776	1319
66.784	1297
66.792	1277
66.8	1258
66.808	1237
66.816	1215
66.824	1193
66.832	1171.99999999996
66.84	1151
66.848	1136
66.856	1132
66.864	1144
66.872	1180
66.88	1246
66.888	1344
66.896	1473
66.904	1628
66.912	1798
66.92	1973
66.928	2143
66.936	2298
66.944	2430
66.952	2534
66.96	2607.00000000009
66.968	2647
66.976	2655
66.984	2636
66.992	2593
67	2531
67.008	2453
67.016	2364
67.024	2269
67.032	2172
67.04	2076
67.048	1985
67.056	1899
67.064	1821.99999999987
67.072	1754
67.08	1693
67.088	1642.99999999992
67.096	1603
67.104	1571
67.112	1547
67.12	1529
67.128	1516
67.136	1507
67.144	1501
67.152	1497
67.16	1495
67.168	1493
67.176	1490
67.184	1486
67.192	1479.99999999999
67.2	1471
67.208	1460
67.216	1446.99999999998
67.224	1434
67.232	1419
67.24	1403
67.248	1384
67.256	1361
67.264	1338
67.272	1315
67.28	1292
67.288	1268
67.296	1244
67.304	1222
67.312	1201
67.32	1182.99999999998
67.328	1172
67.336	1171
67.344	1190.00000000005
67.352	1236
67.36	1314
67.368	1425
67.376	1567
67.384	1733
67.392	1914
67.4	2098
67.408	2274
67.416	2433
67.424	2568
67.432	2673
67.44	2747
67.448	2787.00000000002
67.456	2794
67.464	2772
67.472	2725.9999999999
67.48	2660
67.488	2580
67.496	2490
67.504	2392
67.512	2292
67.52	2195
67.528	2102
67.536	2012
67.544	1929
67.552	1856
67.56	1791
67.568	1737
67.576	1693.99999999993
67.584	1659
67.592	1633
67.6	1614
67.608	1601
67.616	1595
67.624	1592
67.632	1590
67.64	1589
67.648	1589
67.656	1589
67.664	1589
67.672	1588
67.68	1584
67.688	1576
67.696	1566
67.704	1553.99999999998
67.712	1539
67.72	1523
67.728	1506
67.736	1487
67.744	1468
67.752	1450
67.76	1433
67.768	1415
67.776	1395
67.784	1374
67.792	1352
67.8	1334
67.808	1334
67.816	1362
67.824	1420
67.832	1638.00000000032
67.84	1794
67.848	1974
67.856	2361
67.864	2545
67.872	2709
67.88	2958
67.888	3035
67.896	3079
67.904	3088
67.912	3054
67.92	2997
67.928	2921
67.936	2831
67.944	2733
67.952	2629
67.96	2523.99999999982
67.968	2421
67.976	2323
67.984	2233
67.992	2151
68	2078
68.008	2016
68.016	1965
68.024	1924
68.032	1891
68.04	1868
68.048	1851
68.056	1840
68.064	1832.99999999999
68.072	1828
68.08	1823
68.088	1817.99999999999
68.096	1810
68.104	1800
68.112	1788
68.12	1774
68.128	1737
68.136	1688
68.144	1652
68.152	1621
68.16	1592
68.168	1563
68.176	1536
68.184	1509
68.192	1481.99999999995
68.2	1454
68.208	1426
68.216	1397.99999999995
68.224	1371
68.232	1346
68.24	1323
68.248	1309
68.256	1312
68.264	1339
68.272	1399
68.28	1496
68.288	1630
68.296	1798
68.304	1990
68.312	2194
68.32	2398.00000000035
68.328	2591
68.336	2763
68.344	2906.00000000022
68.352	3015
68.36	3089
68.368	3126
68.376	3128
68.384	3101
68.392	3048
68.4	2971
68.408	2878
68.416	2772
68.424	2658
68.432	2542
68.44	2427
68.448	2315.99999999981
68.456	2210
68.464	2112
68.472	2023.99999999986
68.48	1948
68.488	1884
68.496	1832
68.504	1791
68.512	1759
68.52	1733
68.528	1712
68.536	1694
68.544	1678
68.552	1665
68.56	1654
68.568	1643
68.576	1630.99999999998
68.584	1617
68.592	1601
68.6	1580.99999999996
68.608	1559
68.616	1536
68.624	1511
68.632	1485
68.64	1458
68.648	1429
68.656	1400
68.664	1372
68.672	1345
68.68	1319
68.688	1293
68.696	1266
68.704	1238.99999999995
68.712	1214
68.72	1190
68.728	1172
68.736	1168
68.744	1186
68.752	1234
68.76	1317
68.768	1437
68.776	1589
68.784	1765
68.792	1957
68.8	2152
68.808	2337
68.816	2504
68.824	2644
68.832	2753.00000000016
68.84	2829
68.848	2870
68.856	2877
68.864	2856
68.872	2808
68.88	2739
68.888	2656
68.896	2559
68.904	2455
68.912	2349
68.92	2243
68.928	2141
68.936	2045
68.944	1955
68.952	1875
68.96	1806.99999999989
68.968	1749
68.976	1703
68.984	1669
68.992	1643
69	1624
69.008	1611
69.016	1603
69.024	1595
69.032	1587
69.04	1580
69.048	1570
69.056	1558
69.064	1544.99999999998
69.072	1530
69.08	1514
69.088	1497.99999999997
69.096	1480
69.104	1460
69.112	1439
69.12	1418
69.128	1394
69.136	1369
69.144	1345
69.152	1321
69.16	1297
69.168	1272
69.176	1246
69.184	1222
69.192	1200.99999999997
69.2	1183
69.208	1170
69.216	1168
69.224	1182
69.232	1218
69.24	1281
69.248	1375
69.256	1497
69.264	1642
69.272	1806
69.28	1979
69.288	2150
69.296	2308
69.304	2446
69.312	2558
69.32	2640.00000000011
69.328	2690
69.336	2708
69.344	2697.99999999997
69.352	2664
69.36	2608
69.368	2535
69.376	2451
69.384	2359
69.392	2262
69.4	2164
69.408	2069
69.416	1978
69.424	1893
69.432	1818
69.44	1751
69.448	1694.99999999991
69.456	1649
69.464	1612
69.472	1583.99999999996
69.48	1564
69.488	1549
69.496	1539
69.504	1533
69.512	1528
69.52	1522
69.528	1515
69.536	1509
69.544	1505
69.552	1502
69.56	1497
69.568	1489
69.576	1477.99999999998
69.584	1464
69.592	1447
