Time	PPG1
0	1346
0.008	1440
0.016	1560
0.024	1699
0.032	1851
0.04	2008
0.048	2162
0.056	2304
0.064	2423
0.072	2517
0.08	2584
0.088	2620
0.096	2626
0.104	2605
0.112	2562
0.12	2500
0.128	2425
0.136	2340
0.144	2248
0.152	2155
0.16	2063
0.168	1973
0.176	1889
0.184	1812
0.192	1741
0.2	1681
0.208	1633
0.216	1595
0.224	1567
0.232	1548
0.24	1536
0.248	1530
0.256	1527
0.264	1526
0.272	1525
0.28	1524
0.288	1519
0.296	1511
0.304	1502
0.312	1492
0.32	1480
0.328	1468
0.336	1457
0.344	1444
0.352	1428
0.36	1411
0.368	1393
0.376	1373
0.384	1353
0.392	1334
0.4	1315
0.408	1297
0.416	1278
0.424	1260
0.432	1244
0.44	1231
0.448	1227
0.456	1234
0.464	1256
0.472	1299
0.48	1367
0.488	1461
0.496	1579
0.504	1717
0.512	1869
0.52	2027
0.528	2181
0.536	2323
0.544	2445
0.552	2542
0.56	2612
0.568	2654
0.576	2668
0.584	2654
0.592	2614
0.6	2553
0.608	2477
0.616	2389
0.624	2295
0.632	2200
0.64	2104
0.648	2012
0.656	1929
0.664	1854
0.672	1787
0.68	1731
0.688	1684
0.696	1647
0.704	1620
0.712	1600
0.72	1587
0.728	1581
0.736	1580
0.744	1581
0.752	1584
0.76	1588
0.768	1590
0.776	1588
0.784	1584
0.792	1577
0.8	1567
0.808	1555
0.816	1542
0.824	1526
0.832	1508
0.84	1490
0.848	1472
0.856	1453
0.864	1434
0.872	1413
0.88	1392
0.888	1370
0.896	1349
0.904	1330
0.912	1313
0.92	1304
0.928	1305
0.936	1322
0.944	1359
0.952	1421
0.96	1510
0.968	1627
0.976	1770
0.984	1931
0.992	2102
1	2272
1.008	2435
1.016	2582
1.024	2705
1.032	2802
1.04	2867
1.048	2900
1.056	2872
1.064	2802
1.072	2731
1.08	2653
1.088	2565
1.096	2469
1.104	2368
1.112	2266
1.12	2168
1.128	2074
1.136	1985
1.144	1904
1.152	1833
1.16	1775
1.168	1729
1.176	1695
1.184	1672
1.192	1657
1.2	1648
1.208	1642
1.216	1639
1.224	1638
1.232	1636
1.24	1632
1.248	1627
1.256	1623
1.264	1617
1.272	1608
1.28	1595
1.288	1580
1.296	1562
1.304	1542
1.312	1521
1.32	1500
1.328	1478
1.336	1456
1.344	1434
1.352	1413
1.36	1394
1.368	1374
1.376	1355
1.384	1338
1.392	1324
1.4	1318
1.408	1326
1.416	1357
1.424	1415
1.432	1502
1.44	1620
1.448	1767
1.456	1936
1.464	2115
1.472	2295
1.48	2467
1.488	2623
1.496	2753
1.504	2852
1.512	2919
1.52	2954
1.528	2956
1.536	2927
1.544	2872
1.552	2797
1.56	2708
1.568	2608
1.576	2501
1.584	2392
1.592	2284
1.6	2181
1.608	2087
1.616	2002
1.624	1927
1.632	1865
1.64	1815
1.648	1777
1.656	1750
1.664	1729
1.672	1714
1.68	1704
1.688	1697
1.696	1692
1.704	1687
1.712	1681
1.72	1673
1.728	1663
1.736	1649
1.744	1633
1.752	1614
1.76	1591
1.768	1567
1.776	1540
1.784	1511
1.792	1483
1.8	1455
1.808	1426
1.816	1396
1.824	1368
1.832	1341
1.84	1314
1.848	1288
1.856	1264
1.864	1243
1.872	1230
1.88	1226
1.888	1238
1.896	1274
1.904	1339
1.912	1434
1.92	1557
1.928	1705
1.936	1868
1.944	2038
1.952	2206
1.96	2362
1.968	2498
1.976	2608
1.984	2688
1.992	2736
2	2752
2.008	2739
2.016	2700
2.024	2637
2.032	2557
2.04	2464
2.048	2361
2.056	2253
2.064	2145
2.072	2041
2.08	1942
2.088	1852
2.096	1773
2.104	1705
2.112	1648
2.12	1600
2.128	1562
2.136	1532
2.144	1510
2.152	1496
2.16	1488
2.168	1483
2.176	1480
2.184	1477
2.192	1473
2.2	1467
2.208	1458
2.216	1445
2.224	1431
2.232	1414
2.24	1394
2.248	1374
2.256	1356
2.264	1339
2.272	1322
2.28	1305
2.288	1288
2.296	1269
2.304	1249
2.312	1229
2.32	1209
2.328	1190
2.336	1174
2.344	1161
2.352	1155
2.36	1159
2.368	1176
2.376	1209
2.384	1262
2.392	1337
2.4	1436
2.408	1555
2.416	1690
2.424	1832
2.432	1976
2.44	2115
2.448	2240
2.456	2341
2.464	2415
2.472	2460
2.48	2473
2.488	2458
2.496	2417
2.504	2355
2.512	2278
2.52	2189
2.528	2094
2.536	1997
2.544	1902
2.552	1810
2.56	1724
2.568	1646
2.576	1579
2.584	1525
2.592	1481
2.6	1446
2.608	1421
2.616	1406
2.624	1398
2.632	1395
2.64	1395
2.648	1397
2.656	1399
2.664	1399
2.672	1398
2.68	1395
2.688	1391
2.696	1385
2.704	1375
2.712	1363
2.72	1350
2.728	1334
2.736	1316
2.744	1297
2.752	1278
2.76	1257
2.768	1238
2.776	1221
2.784	1204
2.792	1187
2.8	1173
2.808	1159
2.816	1147
2.824	1140
2.832	1141
2.84	1155
2.848	1184
2.856	1231
2.864	1301
2.872	1395
2.88	1510
2.888	1643
2.896	1788
2.904	1936
2.912	2080
2.92	2209
2.928	2317
2.936	2399
2.944	2451
2.952	2473
2.96	2466
2.968	2432
2.976	2376
2.984	2300
2.992	2210
3	2113
3.008	2015
3.016	1918
3.024	1824
3.032	1738
3.04	1661
3.048	1592
3.056	1532
3.064	1484
3.072	1447
3.08	1421
3.088	1405
3.096	1397
3.104	1398
3.112	1404
3.12	1410
3.128	1416
3.136	1420
3.144	1422
3.152	1422
3.16	1419
3.168	1414
3.176	1405
3.184	1393
3.192	1380
3.2	1367
3.208	1354
3.216	1337
3.224	1319
3.232	1301
3.24	1282
3.248	1262
3.256	1244
3.264	1229
3.272	1216
3.28	1204
3.288	1196
3.296	1194
3.304	1201
3.312	1223
3.32	1265
3.328	1331
3.336	1423
3.344	1540
3.352	1679
3.36	1834
3.368	1995
3.376	2156
3.384	2306
3.392	2437
3.4	2543
3.408	2618
3.416	2660
3.424	2672
3.432	2655
3.44	2612
3.448	2546
3.456	2463
3.464	2369
3.472	2269
3.48	2167
3.488	2066
3.496	1969
3.504	1881
3.512	1803
3.52	1735
3.528	1679
3.536	1637
3.544	1608
3.552	1589
3.56	1579
3.568	1576
3.576	1578
3.584	1582
3.592	1587
3.6	1593
3.608	1597
3.616	1598
3.624	1596
3.632	1592
3.64	1585
3.648	1576
3.656	1562
3.664	1544
3.672	1525
3.68	1506
3.688	1485
3.696	1464
3.704	1444
3.712	1426
3.72	1407
3.728	1389
3.736	1373
3.744	1358
3.752	1346
3.76	1340
3.768	1344
3.776	1365
3.784	1409
3.792	1480
3.8	1581.00000000001
3.808	1710.00000000001
3.816	1861.00000000001
3.824	2028.00000000001
3.832	2201.00000000001
3.84	2372
3.848	2530
3.856	2667
3.864	2777
3.872	2857
3.88	2903
3.888	2914
3.896	2893
3.904	2846
3.912	2776
3.92	2689
3.928	2589
3.936	2480
3.944	2367
3.952	2256
3.96	2150
3.968	2052
3.976	1964
3.984	1888
3.992	1824
4	1773
4.008	1737
4.016	1711
4.024	1693
4.032	1682
4.04	1675
4.048	1672
4.056	1669
4.064	1665
4.072	1659
4.08	1651
4.088	1642
4.096	1631
4.104	1618
4.112	1603
4.12	1587
4.128	1568
4.136	1546
4.144	1524
4.152	1503
4.16	1482
4.168	1460
4.176	1438
4.184	1415
4.192	1393
4.2	1373
4.208	1353
4.216	1334
4.224	1320
4.232	1315
4.24	1326
4.248	1357
4.256	1412
4.264	1494
4.272	1606
4.28	1746
4.288	1905
4.296	2074
4.304	2244
4.312	2405
4.32	2549
4.328	2667
4.336	2754
4.344	2808
4.352	2827
4.36	2813
4.368	2769
4.376	2698
4.384	2605
4.392	2497
4.4	2379
4.408	2257
4.416	2136
4.424	2021
4.432	1916
4.44	1821
4.448	1739
4.456	1669
4.464	1610
4.472	1563
4.48	1530
4.488	1508
4.496	1496
4.504	1490
4.512	1487
4.52	1486
4.528	1485
4.536	1484
4.544	1480
4.552	1472
4.56	1460
4.568	1446
4.576	1420
4.584	1401
4.592	1380
4.6	1335
4.608	1312
4.616	1289
4.624	1242
4.632	1219
4.64	1196
4.648	1164
4.656	1143
4.664	1126
4.672	1115
4.68	1115
4.688	1129
4.696	1162
4.704	1218
4.712	1300
4.72	1409
4.728	1543
4.736	1693
4.744	1929
4.752	2082
4.76	2222
4.768	2393
4.776	2468
4.784	2509
4.792	2519
4.8	2497
4.808	2447
4.816	2376
4.824	2288
4.832	2188
4.84	2081
4.848	1972
4.856	1865
4.864	1766
4.872	1674
4.88	1592
4.888	1523
4.896	1466
4.904	1421
4.912	1390
4.92	1369
4.928	1357
4.936	1351
4.944	1349
4.952	1351
4.96	1355
4.968	1358
4.976	1359
4.984	1359
4.992	1357
5	1353
5.008	1346
5.016	1335
5.024	1322
5.032	1307
5.04	1291
5.048	1272
5.056	1252
5.064	1232
5.072	1210
5.08	1187
5.088	1165
5.096	1144
5.104	1125
5.112	1112
5.12	1101
5.128	1095
5.136	1098
5.144	1111
5.152	1142
5.16	1195
5.168	1271
5.176	1371
5.184	1496
5.192	1639
5.2	1795
5.208	1956
5.216	2109
5.224	2246
5.232	2359
5.24	2443
5.248	2492
5.256	2505
5.264	2486
5.272	2437
5.28	2365
5.288	2274
5.296	2170
5.304	2060
5.312	1947
5.32	1836
5.328	1732
5.336	1637
5.344	1554
5.352	1484
5.36	1428
5.368	1387
5.376	1361
5.384	1347
5.392	1341
5.4	1342
5.408	1347
5.416	1354
5.424	1361
5.432	1367
5.44	1370
5.448	1369
5.456	1366
5.464	1361
5.472	1355
5.48	1346
5.488	1331
5.496	1311
5.504	1288
5.512	1263
5.52	1238
5.528	1212
5.536	1187
5.544	1164
5.552	1142
5.56	1122
5.568	1105
5.576	1094
5.584	1088
5.592	1089
5.6	1101
5.608	1131
5.616	1182.00000000001
5.624	1256.00000000001
5.632	1358
5.64	1488
5.648	1643
5.656	1815
5.664	1993
5.672	2168
5.68	2330
5.688	2469
5.696	2578
5.704	2652
5.712	2689
5.72	2689
5.728	2654
5.736	2589
5.744	2499
5.752	2390
5.76	2269
5.768	2143
5.776	2019
5.784	1901
5.792	1792
5.8	1696
5.808	1614
5.816	1547
5.824	1496
5.832	1457
5.84	1431
5.848	1416
5.856	1409
5.864	1410
5.872	1415
5.88	1421
5.888	1426
5.896	1430
5.904	1432
5.912	1430
5.92	1425
5.928	1417
5.936	1405
5.944	1390
5.952	1373
5.96	1356
5.968	1336
5.976	1315
5.984	1294
5.992	1272
6	1251
6.008	1232
6.016	1215
6.024	1200
6.032	1186
6.04	1177
6.048	1175
6.056	1184
6.064	1210
6.072	1259
6.08	1338
6.088	1448
6.096	1588
6.104	1756
6.112	1944
6.12	2139
6.128	2330
6.136	2505
6.144	2657
6.152	2778
6.16	2862
6.168	2908
6.176	2914
6.184	2884
6.192	2824
6.2	2738
6.208	2631
6.216	2510
6.224	2382
6.232	2253
6.24	2127
6.248	2009
6.256	1904
6.264	1812
6.272	1735
6.28	1675
6.288	1630
6.296	1598
6.304	1576
6.312	1562
6.32	1555
6.328	1553
6.336	1555
6.344	1558
6.352	1557
6.36	1554
6.368	1549
6.376	1542
6.384	1530
6.392	1516
6.4	1502
6.408	1486
6.416	1467
6.424	1445
6.432	1421
6.44	1397
6.448	1373
6.456	1349
6.464	1325
6.472	1300
6.48	1275
6.488	1253
6.496	1236
6.504	1227
6.512	1231
6.52	1255
6.528	1305.00000000001
6.536	1386.00000000001
6.544	1501.00000000001
6.552	1650.00000000002
6.56	1827.00000000002
6.568	2024.00000000002
6.576	2227.00000000002
6.584	2426.00000000002
6.592	2609.00000000002
6.6	2766.00000000002
6.608	2888.00000000001
6.616	2972.00000000001
6.624	3016
6.632	3021
6.64	2990
6.648	2924.99999999999
6.656	2833.99999999999
6.664	2721
6.672	2593
6.68	2458
6.688	2321
6.696	2187
6.704	2060
6.712	1943
6.72	1841
6.728	1755
6.736	1685
6.744	1632
6.752	1593
6.76	1566
6.768	1548
6.776	1537
6.784	1530
6.792	1524
6.8	1518
6.808	1511
6.816	1504
6.824	1496
6.832	1486
6.84	1472
6.848	1455
6.856	1436
6.864	1414
6.872	1390
6.88	1365
6.888	1338
6.896	1307
6.904	1275
6.912	1243
6.92	1211
6.928	1178
6.936	1145
6.944	1115
6.952	1089
6.96	1069
6.968	1059
6.976	1064
6.984	1088
6.992	1139
7	1223
7.008	1340
7.016	1488
7.024	1663
7.032	1856
7.04	2050
7.048	2234
7.056	2397
7.064	2530
7.072	2627
7.08	2685
7.088	2702
7.096	2679
7.104	2622
7.112	2535
7.12	2425
7.128	2300
7.136	2165
7.144	2027
7.152	1893
7.16	1767
7.168	1658
7.176	1567
7.184	1489
7.192	1425
7.2	1374
7.208	1334
7.216	1305
7.224	1286
7.232	1275
7.24	1270
7.248	1268
7.256	1269
7.264	1272
7.272	1274
7.28	1274
7.288	1272
7.296	1269
7.304	1265
7.312	1259
7.32	1250
7.328	1235
7.336	1216
7.344	1194
7.352	1170
7.36	1144
7.368	1117
7.376	1091
7.384	1065
7.392	1040
7.4	1018
7.408	999
7.416	985
7.424	978
7.432	980
7.44	996
7.448	1030
7.456	1088
7.464	1174
7.472	1287
7.48	1426
7.488	1583
7.496	1750
7.504	1918.00000000002
7.512	2076.00000000002
7.52	2213.00000000001
7.528	2323.00000000001
7.536	2398.00000000001
7.544	2432
7.552	2428
7.56	2388.99999999999
7.568	2318.99999999999
7.576	2222.99999999999
7.584	2107.99999999999
7.592	1981.99999999999
7.6	1853.99999999999
7.608	1728.99999999999
7.616	1611.99999999999
7.624	1506.99999999999
7.632	1416.99999999999
7.64	1342.99999999999
7.648	1283.99999999999
7.656	1238
7.664	1206
7.672	1185
7.68	1173
7.688	1168
7.696	1167
7.704	1170
7.712	1175
7.72	1182
7.728	1188
7.736	1193
7.744	1198
7.752	1200
7.76	1199
7.768	1195
7.776	1187
7.784	1175
7.792	1160
7.8	1142
7.808	1121
7.816	1099
7.824	1076
7.832	1051
7.84	1028
7.848	1008
7.856	991
7.864	979
7.872	971
7.88	969
7.888	978
7.896	1001
7.904	1044
7.912	1111
7.92	1207
7.928	1330
7.936	1477
7.944	1645
7.952	1823
7.96	2000
7.968	2164
7.976	2304
7.984	2412
7.992	2482
8	2513
8.008	2507
8.016	2463
8.024	2385.99999999998
8.032	2283
8.04	2162.99999999997
8.048	2032
8.056	1896.99999999997
8.064	1766
8.072	1642.99999999997
8.08	1534
8.088	1438.99999999998
8.096	1363
8.104	1305.99999999999
8.112	1263
8.12	1234
8.128	1217
8.136	1210
8.144	1208
8.152	1210
8.16	1216
8.168	1224
8.176	1231
8.184	1238
8.192	1244
8.2	1248
8.208	1249
8.216	1246
8.224	1238
8.232	1226
8.24	1211
8.248	1194
8.256	1173
8.264	1152
8.272	1129
8.28	1105
8.288	1081
8.296	1058
8.304	1036
8.312	1017
8.32	1004
8.328	997
8.336	999
8.344	1015
8.352	1052
8.36	1115
8.368	1209
8.376	1333
8.384	1486
8.392	1663
8.4	1857
8.408	2054
8.416	2240
8.424	2405
8.432	2539
8.44	2635
8.448	2690
8.456	2703
8.464	2676
8.472	2612
8.48	2517
8.488	2399
8.496	2266
8.504	2124
8.512	1983
8.52	1850
8.528	1727
8.536	1619
8.544	1527
8.552	1453
8.56	1397
8.568	1356
8.576	1328
8.584	1312
8.592	1305
8.6	1305
8.608	1309
8.616	1317
8.624	1327
8.632	1337
8.64	1346
8.648	1352
8.656	1356
8.664	1356
8.672	1351
8.68	1343
8.688	1330
8.696	1311
8.704	1291
8.712	1270
8.72	1246
8.728	1221
8.736	1198
8.744	1175
8.752	1154
8.76	1134
8.768	1116
8.776	1103
8.784	1099
8.792	1109
8.8	1139
8.808	1196
8.816	1286
8.824	1412
8.832	1572
8.84	1760
8.848	1965
8.856	2174
8.864	2374
8.872	2553
8.88	2700
8.888	2807
8.896	2873
8.904	2898
8.912	2881
8.92	2826
8.928	2738
8.936	2624
8.944	2492
8.952	2350
8.96	2205
8.968	2064
8.976	1930
8.984	1809
8.992	1706
9	1619
9.008	1549.99999999999
9.016	1498
9.024	1459.99999999999
9.032	1433
9.04	1417
9.048	1409
9.056	1405
9.064	1403
9.072	1402
9.08	1401
9.088	1401
9.096	1399
9.104	1395
9.112	1390
9.12	1382
9.128	1371
9.136	1358
9.144	1340
9.152	1318
9.16	1296
9.168	1273.99999999999
9.176	1250
9.184	1223.99999999999
9.192	1197
9.2	1169.99999999999
9.208	1141
9.216	1144
9.224	1165
9.232	1169
9.24	1171
9.248	1182
9.256	1213
9.264	1273
9.272	1366
9.28	1495
9.288	1660
9.296	1850
9.304	2054
9.312	2260
9.32	2451
9.328	2617
9.336	2747
9.344	2834
9.352	2876
9.36	2874
9.368	2832
9.376	2755
9.384	2650
9.392	2521
9.4	2377
9.408	2226
9.416	2074
9.424	1929
9.432	1797
9.44	1678
9.448	1574
9.456	1490
9.464	1424
9.472	1374
9.48	1338
9.488	1313
9.496	1298
9.504	1289
9.512	1285
9.52	1284
9.528	1283
9.536	1281
9.544	1277
9.552	1270
9.56	1262
9.568	1255
9.576	1248
9.584	1238
9.592	1225
9.6	1210
9.608	1190
9.616	1167
9.624	1144
9.632	1119
9.64	1093
9.648	1066
9.656	1039
9.664	1014
9.672	990
9.68	968
9.688	950
9.696	940
9.704	943
9.712	965
9.72	1012
9.728	1090
9.736	1202
9.744	1345
9.752	1513
9.76	1699
9.768	1890
9.776	2070
9.784	2229
9.792	2358
9.8	2448
9.808	2497
9.816	2507
9.824	2478
9.832	2411
9.84	2315
9.848	2198
9.856	2066
9.864	1928
9.872	1791
9.88	1661
9.888	1542
9.896	1435
9.904	1343
9.912	1267
9.92	1207
9.928	1163
9.936	1134
9.944	1117
9.952	1111
9.96	1112
9.968	1117
9.976	1125
9.984	1133
9.992	1140
10	1145
10.008	1149
10.016	1150
10.024	1146
10.032	1139
10.04	1130
10.048	1117
10.056	1102
10.064	1083
10.072	1060.99999999999
10.08	1038
10.088	1014.99999999999
10.096	992
10.104	967.999999999995
10.112	944
10.12	919.999999999995
10.128	898
10.136	880.999999999997
10.144	870
10.152	867
10.16	878
10.168	906.000000000008
10.176	959
10.184	1042.00000000002
10.192	1156
10.2	1299.00000000003
10.208	1465
10.216	1647.00000000004
10.224	1832
10.232	2006.00000000004
10.24	2161
10.248	2286
10.256	2371
10.264	2415
10.272	2417
10.28	2379
10.288	2306
10.296	2206
10.304	2088
10.312	1958
10.32	1824
10.328	1694
10.336	1572
10.344	1461
10.352	1364
10.36	1281
10.368	1216
10.376	1167
10.384	1132
10.392	1109
10.4	1097
10.408	1093
10.416	1095
10.424	1101
10.432	1109
10.44	1118
10.448	1126
10.456	1131
10.464	1133
10.472	1132
10.48	1129
10.488	1124
10.496	1115
10.504	1104
10.512	1089
10.52	1071
10.528	1050
10.536	1027
10.544	1005
10.552	983
10.56	960
10.568	937
10.576	916
10.584	897
10.592	883
10.6	876
10.608	880
10.616	901
10.624	945
10.632	1018
10.64	1125
10.648	1266
10.656	1435
10.664	1625
10.672	1822
10.68	2011
10.688	2183
10.696	2326
10.704	2430
10.712	2493
10.72	2514
10.728	2494
10.736	2437
10.744	2349
10.752	2238
10.76	2110
10.768	1971
10.776	1831
10.784	1698
10.792	1574
10.8	1463
10.808	1368
10.816	1289
10.824	1228
10.832	1183
10.84	1155
10.848	1140
10.856	1134
10.864	1135
10.872	1141
10.88	1150
10.888	1160
10.896	1170
10.904	1178
10.912	1184
10.92	1187
10.928	1187
10.936	1183
10.944	1175
10.952	1164
10.96	1150
10.968	1136
10.976	1121
10.984	1105
10.992	1087
11	1067
11.008	1046
11.016	1024
11.024	1003
11.032	984
11.04	966.999999999997
11.048	957
11.056	958
11.064	974
11.072	1014.00000000001
11.08	1086
11.088	1194.00000000003
11.096	1338
11.104	1512.00000000004
11.112	1708
11.12	1915.00000000005
11.128	2120
11.136	2308.00000000004
11.144	2467
11.152	2591.00000000002
11.16	2673
11.168	2710
11.176	2703
11.184	2656.99999999999
11.192	2578
11.2	2470.99999999997
11.208	2345
11.216	2208.99999999997
11.224	2069
11.232	1930.99999999997
11.24	1802
11.248	1684.99999999998
11.256	1583
11.264	1546
11.272	1552
11.28	1539
11.288	1523
11.296	1510
11.304	1502
11.312	1500
11.32	1502
11.328	1507
11.336	1515
11.344	1524
11.352	1531
11.36	1537
11.368	1540
11.376	1538
11.384	1532
11.392	1523
11.4	1512
11.408	1497
11.416	1481
11.424	1465
11.432	1448
11.44	1429
11.448	1411
11.456	1392
11.464	1371
11.472	1351
11.48	1330
11.488	1308
11.496	1288
11.504	1274
11.512	1273
11.52	1293
11.528	1343
11.536	1429
11.544	1553
11.552	1713
11.56	1900
11.568	2102
11.576	2306
11.584	2496
11.592	2660
11.6	2791
11.608	2882
11.616	2929
11.624	2936
11.632	2905
11.64	2842
11.648	2751
11.656	2640
11.664	2514
11.672	2379
11.68	2243
11.688	2113
11.696	1993
11.704	1884
11.712	1789
11.72	1711
11.728	1647
11.736	1598
11.744	1563
11.752	1539
11.76	1524
11.768	1516
11.776	1512
11.784	1511
11.792	1513
11.8	1514
11.808	1512
11.816	1509
11.824	1504
11.832	1495
11.84	1483
11.848	1468
11.856	1450
11.864	1429
11.872	1405
11.88	1379
11.888	1352
11.896	1324
11.904	1296
11.912	1269
11.92	1244
11.928	1217
11.936	1191
11.944	1165
11.952	1141
11.96	1124
11.968	1118
11.976	1132
11.984	1173
11.992	1249
12	1363
12.008	1512.00000000004
12.016	1689
12.024	1882.00000000004
12.032	2076
12.04	2258.00000000004
12.048	2414
12.056	2536.00000000002
12.064	2619
12.072	2662
12.08	2664
12.088	2627.99999999999
12.096	2560
12.104	2466.99999999998
12.112	2355
12.12	2228.99999999997
12.128	2097
12.136	1965.99999999997
12.144	1840
12.152	1722.99999999998
12.16	1619
12.168	1528.99999999998
12.176	1455
12.184	1398.99999999999
12.192	1358
12.2	1329
12.208	1312
12.216	1302
12.224	1299
12.232	1302
12.24	1307
12.248	1314
12.256	1320
12.264	1325
12.272	1329
12.28	1330
12.288	1328
12.296	1324
12.304	1317
12.312	1307
12.32	1294
12.328	1278
12.336	1260
12.344	1240
12.352	1219
12.36	1199
12.368	1178
12.376	1155
12.384	1133
12.392	1112
12.4	1093
12.408	1077
12.416	1064
12.424	1060
12.432	1071
12.44	1103
12.448	1161
12.456	1249
12.464	1369
12.472	1518
12.48	1687
12.488	1866
12.496	2040
12.504	2198
12.512	2329
12.52	2426
12.528	2485
12.536	2506
12.544	2490
12.552	2443
12.56	2370
12.568	2274
12.576	2163
12.584	2046
12.592	1927
12.6	1812
12.608	1706
12.616	1612
12.624	1531
12.632	1465
12.64	1413
12.648	1376
12.656	1352
12.664	1337
12.672	1331
12.68	1332
12.688	1336
12.696	1342
12.704	1348
12.712	1354
12.72	1359
12.728	1362
12.736	1362
12.744	1360
12.752	1355
12.76	1349
12.768	1341
12.776	1329
12.784	1314
12.792	1297
12.8	1279
12.808	1260
12.816	1241
12.824	1222
12.832	1202
12.84	1182
12.848	1162
12.856	1143
12.864	1128
12.872	1118
12.88	1117
12.888	1132
12.896	1167
12.904	1229
12.912	1323
12.92	1448
12.928	1598
12.936	1767
12.944	1943
12.952	2114
12.96	2268
12.968	2395
12.976	2489
12.984	2545
12.992	2563
13	2545
13.008	2493.99999999999
13.016	2415
13.024	2315.99999999998
13.032	2203
13.04	2084.99999999997
13.048	1966
13.056	1851.99999999998
13.064	1747
13.072	1652.99999999998
13.08	1572
13.088	1505.99999999999
13.096	1457
13.104	1422.99999999999
13.112	1400
13.12	1386
13.128	1381
13.136	1383
13.144	1388
13.152	1394
13.16	1401
13.168	1408
13.176	1412
13.184	1414
13.192	1414
13.2	1411
13.208	1406
13.216	1399
13.224	1390
13.232	1377
13.24	1363
13.248	1348
13.256	1331
13.264	1313
13.272	1294
13.28	1273
13.288	1253
13.296	1234
13.304	1214
13.312	1206
13.32	1206
13.328	1202
13.336	1205
13.344	1225
13.352	1267
13.36	1337
13.368	1440
13.376	1576
13.384	1740
13.392	1922
13.4	2111
13.408	2293
13.416	2454
13.424	2585
13.432	2680
13.44	2735
13.448	2753
13.456	2736
13.464	2687
13.472	2612
13.48	2515
13.488	2405
13.496	2288
13.504	2168
13.512	2052
13.52	1946
13.528	1853
13.536	1774
13.544	1708
13.552	1658
13.56	1623
13.568	1601
13.576	1589
13.584	1585
13.592	1588
13.6	1594
13.608	1601
13.616	1608
13.624	1612
13.632	1614
13.64	1614
13.648	1612
13.656	1609
13.664	1605
13.672	1598
13.68	1587
13.688	1574
13.696	1558
13.704	1539
13.712	1521
13.72	1504
13.728	1486
13.736	1469
13.744	1452
13.752	1434
13.76	1415
13.768	1396
13.776	1381
13.784	1373
13.792	1375
13.8	1396
13.808	1444
13.816	1526
13.824	1644
13.832	1796
13.84	1975
13.848	2170
13.856	2365
13.864	2547
13.872	2704
13.88	2826
13.888	2909
13.896	2952
13.904	2955
13.912	2924
13.92	2863
13.928	2781
13.936	2682
13.944	2572
13.952	2458
13.96	2343
13.968	2232
13.976	2128
13.984	2037
13.992	1960
14	1895
14.008	1844.99999999999
14.016	1807
14.024	1780
14.032	1762
14.04	1750
14.048	1743
14.056	1741
14.064	1741
14.072	1740
14.08	1737
14.088	1733
14.096	1728
14.104	1721
14.112	1713
14.12	1704
14.128	1692
14.136	1677
14.144	1661
14.152	1643
14.16	1624
14.168	1604
14.176	1583
14.184	1562
14.192	1540
14.2	1519
14.208	1499
14.216	1479
14.224	1458
14.232	1436
14.24	1417
14.248	1406
14.256	1410
14.264	1439.00000000001
14.272	1499
14.28	1595.00000000002
14.288	1729
14.296	1895.00000000004
14.304	2082
14.312	2274.00000000004
14.32	2457
14.328	2618.00000000003
14.336	2746
14.344	2835
14.352	2883
14.36	2891
14.368	2862
14.376	2802
14.384	2718
14.392	2616
14.4	2501
14.408	2379
14.416	2255
14.424	2134
14.432	2021
14.44	1921
14.448	1835
14.456	1763
14.464	1705
14.472	1661
14.48	1630
14.488	1609
14.496	1597
14.504	1591
14.512	1588
14.52	1586
14.528	1584
14.536	1581
14.544	1576
14.552	1568
14.56	1557
14.568	1542
14.576	1525
14.584	1508
14.592	1489
14.6	1470
14.608	1449
14.616	1428
14.624	1407
14.632	1388
14.64	1369
14.648	1349
14.656	1329
14.664	1310
14.672	1292
14.68	1276
14.688	1259
14.696	1243
14.704	1230
14.712	1223
14.72	1229
14.728	1253
14.736	1303
14.744	1384
14.752	1497
14.76	1640
14.768	1803
14.776	1976
14.784	2144
14.792	2296
14.8	2422
14.808	2515
14.816	2572
14.824	2591
14.832	2576
14.84	2529
14.848	2457
14.856	2365
14.864	2261
14.872	2152
14.88	2041
14.888	1936
14.896	1839
14.904	1752
14.912	1676
14.92	1613
14.928	1564
14.936	1527
14.944	1493
14.952	1481
14.96	1476
14.968	1480
14.976	1486
14.984	1492
14.992	1498
15	1496
15.008	1492
15.016	1482
15.024	1473
15.032	1464
15.04	1452
15.048	1437
15.056	1421
15.064	1405
15.072	1389
15.08	1372
15.088	1353
15.096	1335
15.104	1317
15.112	1291
15.12	1275
15.128	1261
15.136	1244
15.144	1241
15.152	1250
15.16	1276
15.168	1326.00000000001
15.176	1404
15.184	1512.00000000003
15.192	1646
15.2	1798.00000000003
15.208	1960
15.216	2121.00000000003
15.224	2268
15.232	2390.00000000002
15.24	2482
15.248	2539.00000000001
15.256	2558
15.264	2541.99999999999
15.272	2497
15.28	2427.99999999998
15.288	2340
15.296	2239.99999999998
15.304	2134
15.312	2027.99999999998
15.32	1926
15.328	1810.99999999997
15.336	1696
15.344	1604.99999999998
15.352	1534
15.36	1479
15.368	1441
15.376	1418
15.384	1406
15.392	1404
15.4	1408
15.408	1415
15.416	1424
15.424	1432
15.432	1439
15.44	1443
15.448	1443
15.456	1439
15.464	1431
15.472	1421
15.48	1410
15.488	1398
15.496	1385
15.504	1370
15.512	1351
15.52	1330
15.528	1308
15.536	1286
15.544	1264
15.552	1244
15.56	1226
15.568	1209
15.576	1193
15.584	1177
15.592	1163
15.6	1155
15.608	1157
15.616	1173
15.624	1211
15.632	1278
15.64	1377
15.648	1510
15.656	1669
15.664	1847
15.672	2032
15.68	2211
15.688	2372
15.696	2503
15.704	2598
15.712	2652
15.72	2668
15.728	2647
15.736	2594
15.744	2515
15.752	2419
15.76	2311
15.768	2197
15.776	2083
15.784	1972
15.792	1869
15.8	1778
15.808	1697
15.816	1630
15.824	1578
15.832	1541
15.84	1518
15.848	1507
15.856	1506
15.864	1510
15.872	1518
15.88	1527
15.888	1536
15.896	1542
15.904	1545
15.912	1546
15.92	1543
15.928	1538
15.936	1531
15.944	1522
15.952	1508
15.96	1492
15.968	1475
15.976	1456
15.984	1436
15.992	1418
16	1400
16.008	1381
16.016	1362.99999999999
16.024	1345
16.032	1326
16.04	1307
16.048	1289.99999999999
16.056	1275
16.064	1267
16.072	1271
16.08	1294.00000000001
16.088	1342
16.096	1424
16.104	1544
16.112	1698.00000000007
16.12	1879
16.128	2076
16.136	2274
16.144	2459.00000000008
16.152	2620
16.16	2746
16.168	2831
16.176	2876
16.184	2882
16.192	2853
16.2	2794
16.208	2709.99999999996
16.216	2610
16.224	2500
16.232	2386
16.24	2273.99999999995
16.248	2168
16.256	2070
16.264	1982
16.272	1905.99999999997
16.28	1843
16.288	1795
16.296	1760
16.304	1735.99999999999
16.312	1722
16.32	1716
16.328	1716
16.336	1720
16.344	1726
16.352	1732
16.36	1736
16.368	1738
16.376	1737
16.384	1731
16.392	1720
16.4	1705
16.408	1687
16.416	1667
16.424	1647
16.432	1626
16.44	1604
16.448	1582
16.456	1560
16.464	1539
16.472	1519
16.48	1499
16.488	1479
16.496	1459
16.504	1439
16.512	1420
16.52	1402
16.528	1388
16.536	1385
16.544	1401
16.552	1444
16.56	1522
16.568	1638
16.576	1790
16.584	1971
16.592	2169
16.6	2367
16.608	2550
16.616	2706
16.624	2828
16.632	2911
16.64	2954
16.648	2958
16.656	2928
16.664	2869
16.672	2787
16.68	2688
16.688	2578
16.696	2464
16.704	2350
16.712	2241
16.72	2140
16.728	2047
16.736	1966
16.744	1896
16.752	1841
16.76	1801
16.768	1771
16.776	1751
16.784	1740
16.792	1734
16.8	1732
16.808	1732
16.816	1731
16.824	1729
16.832	1723
16.84	1712
16.848	1696
16.856	1677
16.864	1656
16.872	1631
16.88	1605
16.888	1577
16.896	1547
16.904	1516
16.912	1484
16.92	1453
16.928	1425
16.936	1399
16.944	1374
16.952	1349
16.96	1326
16.968	1304
16.976	1284
16.984	1265
16.992	1247
17	1234
17.008	1232
17.016	1248.00000000001
17.024	1290
17.032	1365
17.04	1474
17.048	1612.00000000007
17.056	1775
17.064	1953
17.072	2131
17.08	2296.00000000007
17.088	2436
17.096	2544
17.104	2615
17.112	2649
17.12	2647
17.128	2611
17.136	2548
17.144	2464.99999999996
17.152	2369
17.16	2265
17.168	2157
17.176	2049.99999999995
17.184	1946
17.192	1849
17.2	1764
17.208	1689.99999999997
17.216	1628
17.224	1579
17.232	1544
17.24	1519.99999999999
17.248	1505
17.256	1498
17.264	1496
17.272	1497
17.28	1501
17.288	1506
17.296	1509
17.304	1510
17.312	1507
17.32	1501
17.328	1491
17.336	1475.99999999999
17.344	1456
17.352	1435
17.36	1416
17.368	1395.99999999999
17.376	1362
17.384	1321
17.392	1287
17.4	1256.99999999999
17.408	1232
17.416	1209
17.424	1189
17.432	1170
17.44	1151
17.448	1134
17.456	1117
17.464	1103
17.472	1093
17.48	1091
17.488	1104
17.496	1137
17.504	1199
17.512	1292
17.52	1413
17.528	1560
17.536	1724
17.544	1895
17.552	2059
17.56	2204
17.568	2322
17.576	2408
17.584	2457
17.592	2470
17.6	2451
17.608	2406
17.616	2339
17.624	2254
17.632	2156
17.64	2054
17.648	1952
17.656	1854
17.664	1761
17.672	1675
17.68	1599
17.688	1535
17.696	1483
17.704	1443
17.712	1414
17.72	1395
17.728	1387
17.736	1386
17.744	1390
17.752	1397
17.76	1406
17.768	1414
17.776	1420
17.784	1423
17.792	1423
17.8	1420
17.808	1413
17.816	1403
17.824	1389
17.832	1373
17.84	1356
17.848	1336
17.856	1314
17.864	1290
17.872	1265
17.88	1242
17.888	1221
17.896	1202
17.904	1183
17.912	1166
17.92	1149
17.928	1134
17.936	1121
17.944	1113
17.952	1113
17.96	1127
17.968	1163
17.976	1229
17.984	1327
17.992	1455
18	1608
18.008	1776
18.016	1950.00000000008
18.024	2119
18.032	2271
18.04	2397
18.048	2491.00000000003
18.056	2550
18.064	2573
18.072	2562
18.08	2518.99999999998
18.088	2452
18.096	2367
18.104	2269
18.112	2163.99999999995
18.12	2058
18.128	1956
18.136	1861
18.144	1774.99999999996
18.152	1698
18.16	1631
18.168	1576
18.176	1531.99999999998
18.184	1500
18.192	1479
18.2	1468
18.208	1464
18.216	1467
18.224	1475
18.232	1484
18.24	1491
18.248	1497
18.256	1500
18.264	1499
18.272	1496
18.28	1490
18.288	1482
18.296	1470
18.304	1453.99999999999
18.312	1435
18.32	1414
18.328	1391
18.336	1367.99999999999
18.344	1344
18.352	1321
18.36	1300
18.368	1277.99999999999
18.376	1258
18.384	1241
18.392	1226
18.4	1210.99999999999
18.408	1198
18.416	1189
18.424	1191
18.432	1212.00000000001
18.44	1258
18.448	1336
18.456	1450
18.464	1597
18.472	1770
18.48	1957
18.488	2147
18.496	2327
18.504	2486
18.512	2614
18.52	2706
18.528	2761
18.536	2781
18.544	2767
18.552	2723
18.56	2654
18.568	2565
18.576	2466
18.584	2362
18.592	2257
18.6	2156
18.608	2061
18.616	1975
18.624	1898
18.632	1831
18.64	1776
18.648	1731
18.656	1698
18.664	1675
18.672	1663
18.68	1660
18.688	1662
18.696	1667
18.704	1674
18.712	1680
18.72	1684
18.728	1685
18.736	1683
18.744	1678
18.752	1669
18.76	1657
18.768	1642
18.776	1625
18.784	1608
18.792	1588
18.8	1566
18.808	1542
18.816	1517
18.824	1493
18.832	1469
18.84	1445
18.848	1422
18.856	1400
18.864	1379
18.872	1360
18.88	1342
18.888	1329
18.896	1329
18.904	1349
18.912	1396
18.92	1476
18.928	1595
18.936	1750
18.944	1931
18.952	2127
18.96	2323
18.968	2506
18.976	2662
18.984	2787
18.992	2878
19	2930
19.008	2945
19.016	2924.99999999999
19.024	2875
19.032	2803
19.04	2715
19.048	2615.99999999995
19.056	2511
19.064	2405
19.072	2301
19.08	2200.99999999996
19.088	2108
19.096	2025
19.104	1954
19.112	1895.99999999998
19.12	1851
19.128	1818
19.136	1796
19.144	1784
19.152	1779
19.16	1779
19.168	1782
19.176	1785
19.184	1787
19.192	1787
19.2	1783
19.208	1775
19.216	1763
19.224	1747
19.232	1728
19.24	1704.99999999999
19.248	1679
19.256	1651
19.264	1622
19.272	1590.99999999999
19.28	1560
19.288	1529
19.296	1499
19.304	1469.99999999999
19.312	1442
19.32	1414
19.328	1387
19.336	1360.99999999999
19.344	1335
19.352	1310
19.36	1286
19.368	1271
19.376	1274
19.384	1301
19.392	1360
19.4	1452.00000000005
19.408	1579
19.416	1737
19.424	1923
19.432	2125.00000000009
19.44	2321
19.448	2499
19.456	2649
19.464	2765
19.472	2842
19.48	2877
19.488	2874
19.496	2837
19.504	2774
19.512	2687
19.52	2584
19.528	2471
19.536	2355
19.544	2240
19.552	2128
19.56	2023
19.568	1927
19.576	1841
19.584	1767
19.592	1704
19.6	1652
19.608	1613
19.616	1586
19.624	1568
19.632	1558
19.64	1554
19.648	1555
19.656	1559
19.664	1562
19.672	1563
19.68	1562
19.688	1554
19.696	1541
19.704	1524
19.712	1502
19.72	1480
19.728	1457
19.736	1432
19.744	1406
19.752	1379
19.76	1351
19.768	1323
19.776	1296
19.784	1269
19.792	1243
19.8	1219
19.808	1198
19.816	1179
19.824	1161
19.832	1143
19.84	1127
19.848	1115
19.856	1112
19.864	1126
19.872	1164
19.88	1232
19.888	1334
19.896	1468
19.904	1629
19.912	1808
19.92	1991
19.928	2165
19.936	2318
19.944	2442
19.952	2533
19.96	2589
19.968	2609
19.976	2594
19.984	2549
19.992	2483
20	2400
20.008	2304
20.016	2200.99999999995
20.024	2098
20.032	1997
20.04	1902
20.048	1812.99999999996
20.056	1731
20.064	1658
20.072	1596
20.08	1544.99999999998
20.088	1507
20.096	1482
20.104	1467
20.112	1461
20.12	1460
20.128	1461
20.136	1464
20.144	1466
20.152	1467
20.16	1468
20.168	1467
20.176	1465
20.184	1461
20.192	1452
20.2	1439
20.208	1424.99999999999
20.216	1407
20.224	1387
20.232	1365
20.24	1342.99999999999
20.248	1322
20.256	1299
20.264	1276
20.272	1251.99999999999
20.28	1228
20.288	1205
20.296	1185
20.304	1164.99999999999
20.312	1145
20.32	1128
20.328	1116
20.336	1113
20.344	1126
20.352	1161
20.36	1224
20.368	1318.00000000005
20.376	1445
20.384	1600
20.392	1771
20.4	1950.00000000008
20.408	2124
20.416	2281
20.424	2414
20.432	2516.00000000004
20.44	2584
20.448	2617
20.456	2617
20.464	2587.99999999998
20.472	2534
20.48	2460
20.488	2372
20.496	2277
20.504	2179
20.512	2080
20.52	1984
20.528	1894
20.536	1811
20.544	1737
20.552	1673
20.56	1620
20.568	1576
20.576	1540
20.584	1513
20.592	1496
20.6	1486
20.608	1482
20.616	1482
20.624	1484
20.632	1487
20.64	1489
20.648	1488
20.656	1485
20.664	1481
20.672	1475
20.68	1467
20.688	1456
20.696	1442
20.704	1427
20.712	1410
20.72	1390
20.728	1368
20.736	1346
20.744	1325
20.752	1304
20.76	1284
20.768	1264
20.776	1243
20.784	1222
20.792	1201
20.8	1183
20.808	1169
20.816	1166
20.824	1181
20.832	1223
20.84	1298
20.848	1409
20.856	1555
20.864	1728
20.872	1919
20.88	2115
20.888	2302
20.896	2468
20.904	2605
20.912	2709
20.92	2776
20.928	2807
20.936	2806
20.944	2776
20.952	2721
20.96	2647
20.968	2559
20.976	2460
20.984	2356
20.992	2253
21	2155
21.008	2063
21.016	1978.99999999996
21.024	1904
21.032	1837
21.04	1783
21.048	1740.99999999998
21.056	1710
21.064	1689
21.072	1677
21.08	1672
21.088	1671
21.096	1673
21.104	1676
21.112	1679
21.12	1682
21.128	1682
21.136	1680
21.144	1676
21.152	1670
21.16	1660
21.168	1646
21.176	1628.99999999999
21.184	1609
21.192	1587
21.2	1563
21.208	1537.99999999999
21.216	1512
21.224	1487
21.232	1465
21.24	1443.99999999999
21.248	1423
21.256	1403
21.264	1382
21.272	1359.99999999999
21.28	1340
21.288	1326
21.296	1324
21.304	1342.00000000001
21.312	1390
21.32	1475
21.328	1599
21.336	1757.00000000008
21.344	1941
21.352	2139
21.36	2338
21.368	2525.00000000008
21.376	2691
21.384	2828
21.392	2928
21.4	2991.00000000002
21.408	3019
21.416	3011
21.424	2972
21.432	2906.99999999997
21.44	2823
21.448	2725
21.456	2618
21.464	2506.99999999995
21.472	2392
21.48	2276
21.488	2169
21.496	2073.99999999996
21.504	1990
21.512	1917
21.52	1857
21.528	1808
21.536	1768
21.544	1739
21.552	1720
21.56	1708
21.568	1702
21.576	1699
21.584	1699
21.592	1699
21.6	1696
21.608	1691
21.616	1684
21.624	1673
21.632	1660
21.64	1644
21.648	1627
21.656	1607
21.664	1584
21.672	1559
21.68	1533
21.688	1505
21.696	1474
21.704	1442
21.712	1412
21.72	1385
21.728	1360
21.736	1333
21.744	1306
21.752	1279
21.76	1255
21.768	1234
21.776	1222
21.784	1229
21.792	1264
21.8	1333
21.808	1441
21.816	1587
21.824	1764
21.832	1960
21.84	2163
21.848	2361
21.856	2540
21.864	2689
21.872	2804
21.88	2880
21.888	2917
21.896	2918
21.904	2885
21.912	2824
21.92	2740
21.928	2640
21.936	2531
21.944	2419
21.952	2306
21.96	2195
21.968	2090
21.976	1991
21.984	1902
21.992	1823
22	1756
22.008	1701
22.016	1657.99999999998
22.024	1625
22.032	1601
22.04	1584
22.048	1573
22.056	1567
22.064	1563
22.072	1558
22.08	1551
22.088	1544
22.096	1536
22.104	1526
22.112	1512.99999999999
22.12	1497
22.128	1478
22.136	1456
22.144	1430.99999999999
22.152	1404
22.16	1375
22.168	1347
22.176	1319.99999999999
22.184	1294
22.192	1269
22.2	1246
22.208	1222.99999999999
22.216	1199
22.224	1174
22.232	1151
22.24	1130.99999999999
22.248	1112
22.256	1097
22.264	1091
22.272	1099.00000000001
22.28	1130
22.288	1189
22.296	1282
22.304	1409.00000000006
22.312	1565
22.32	1741
22.328	1928
22.336	2113.00000000008
22.344	2286
22.352	2436
22.36	2555
22.368	2640.00000000003
22.376	2688
22.384	2701
22.392	2683
22.4	2636.99999999998
22.408	2568
22.416	2483
22.424	2390
22.432	2289.99999999995
22.44	2187
22.448	2086
22.456	1987
22.464	1893.99999999996
22.472	1809
22.48	1733
22.488	1665
22.496	1606.99999999998
22.504	1561
22.512	1527
22.52	1503
22.528	1487
22.536	1477
22.544	1472
22.552	1470
22.56	1469
22.568	1469
22.576	1468
22.584	1464
22.592	1459
22.6	1452
22.608	1441
22.616	1428
22.624	1413
22.632	1398
22.64	1380
22.648	1360
22.656	1338
22.664	1315
22.672	1292
22.68	1268
22.688	1245
22.696	1224
22.704	1203
22.712	1183
22.72	1163
22.728	1144
22.736	1126
22.744	1111
22.752	1104
22.76	1109
22.768	1136
22.776	1191
22.784	1278
22.792	1396
22.8	1542
22.808	1708
22.816	1883
22.824	2057
22.832	2220
22.84	2362
22.848	2479
22.856	2567
22.864	2620
22.872	2640
22.88	2632
22.888	2598
22.896	2541
22.904	2467
22.912	2381
22.92	2287
22.928	2188
22.936	2089
22.944	1995
22.952	1905
22.96	1821
22.968	1745
22.976	1678
22.984	1620
22.992	1572
23	1535
23.008	1508
23.016	1488.99999999999
23.024	1480
23.032	1478
23.04	1480
23.048	1482
23.056	1483
23.064	1483
23.072	1480
23.08	1474
23.088	1466
23.096	1456
23.104	1445
23.112	1431.99999999999
23.12	1418
23.128	1405
23.136	1390
23.144	1370.99999999999
23.152	1350
23.16	1327
23.168	1304
23.176	1281.99999999999
23.184	1262
23.192	1244
23.2	1227
23.208	1208.99999999999
23.216	1189
23.224	1168
23.232	1151
23.24	1147
23.248	1162
23.256	1203
23.264	1276
23.272	1382.00000000005
23.28	1523
23.288	1693
23.296	1880
23.304	2072.00000000008
23.312	2258
23.32	2427
23.328	2571
23.336	2683.00000000004
23.344	2761
23.352	2806
23.36	2818
23.368	2799.99999999999
23.376	2756
23.384	2690
23.392	2608
23.4	2515.99999999996
23.408	2418
23.416	2317
23.424	2217
23.432	2119.99999999996
23.44	2029
23.448	1947
23.456	1874
23.464	1810.99999999997
23.472	1759
23.48	1717
23.488	1686
23.496	1663.99999999999
23.504	1649
23.512	1642
23.52	1639
23.528	1641
23.536	1646
23.544	1651
23.552	1656
23.56	1657
23.568	1656
23.576	1650
23.584	1639
23.592	1626
23.6	1610
23.608	1590
23.616	1567
23.624	1545
23.632	1523
23.64	1500
23.648	1476
23.656	1452
23.664	1427
23.672	1402
23.68	1377
23.688	1353
23.696	1329
23.704	1306
23.712	1289
23.72	1286
23.728	1304
23.736	1352
23.744	1437
23.752	1563
23.76	1726
23.768	1919
23.776	2132
23.784	2351
23.792	2565
23.8	2761
23.808	2929
23.816	3061
23.824	3154
23.832	3209
23.84	3227
23.848	3210
23.856	3162
23.864	3089
23.872	2997
23.88	2890
23.888	2774
23.896	2655
23.904	2537
23.912	2422
23.92	2312
23.928	2211
23.936	2121
23.944	2042
23.952	1973
23.96	1915
23.968	1870
23.976	1836
23.984	1812
23.992	1795
24	1784
24.008	1777
24.016	1772
24.024	1767
24.032	1761
24.04	1753
24.048	1741.99999999999
24.056	1727
24.064	1711
24.072	1694
24.08	1673.99999999999
24.088	1650
24.096	1624
24.104	1595
24.112	1565.99999999999
24.12	1537
24.128	1509
24.136	1482
24.144	1452.99999999999
24.152	1425
24.16	1398
24.168	1369
24.176	1338.99999999999
24.184	1308
24.192	1279
24.2	1262
24.208	1263
24.216	1293
24.224	1360
24.232	1467
24.24	1613.00000000007
24.248	1792
24.256	1995
24.264	2209
24.272	2423.00000000009
24.28	2624
24.288	2801
24.296	2948
24.304	3059.00000000004
24.312	3134
24.32	3169
24.328	3166
24.336	3127.99999999998
24.344	3062
24.352	2972
24.36	2864
24.368	2745.99999999995
24.376	2623
24.384	2499
24.392	2378
24.4	2262.99999999995
24.408	2155
24.416	2056
24.424	1968
24.432	1891.99999999997
24.44	1828
24.448	1775
24.456	1734
24.464	1701.99999999999
24.472	1679
24.48	1663
24.488	1651
24.496	1642
24.504	1632
24.512	1622
24.52	1611
24.528	1597.99999999999
24.536	1582
24.544	1564
24.552	1546
24.56	1525.99999999999
24.568	1502
24.576	1474
24.584	1443
24.592	1411
24.6	1379
24.608	1347
24.616	1315
24.624	1285
24.632	1259
24.64	1235
24.648	1211
24.656	1189
24.664	1167
24.672	1144
24.68	1121
24.688	1104
24.696	1099
24.704	1115
24.712	1159
24.72	1237
24.728	1351
24.736	1499
24.744	1676
24.752	1871
24.76	2072
24.768	2267
24.776	2446
24.784	2600
24.792	2723
24.8	2810
24.808	2860
24.816	2876
24.824	2860
24.832	2813
24.84	2741
24.848	2652
24.856	2552
24.864	2446
24.872	2336
24.88	2225
24.888	2118
24.896	2016
24.904	1922
24.912	1838
24.92	1766
24.928	1704
24.936	1650
24.944	1606
24.952	1572
24.96	1546
24.968	1528
24.976	1517
24.984	1511
24.992	1508
25	1506
25.008	1504
25.016	1499
25.024	1492
25.032	1482
25.04	1469
25.048	1453.99999999999
25.056	1435
25.064	1415
25.072	1395
25.08	1374.99999999999
25.088	1354
25.096	1331
25.104	1308
25.112	1281.99999999999
25.12	1257
25.128	1234
25.136	1210
25.144	1187.99999999999
25.152	1168
25.16	1150
25.168	1133
25.176	1120
25.184	1116
25.192	1129
25.2	1165
25.208	1230.00000000003
25.216	1328
25.224	1458
25.232	1615
25.24	1790.00000000008
25.248	1973
25.256	2155
25.264	2325
25.272	2474.00000000006
25.28	2595
25.288	2686
25.296	2743
25.304	2767
25.312	2742
25.32	2696
25.328	2629
25.336	2451.99999999994
25.344	2352
25.352	2251
25.36	2055
25.368	1962.99999999996
25.376	1877
25.384	1765
25.392	1704
25.4	1651.99999999998
25.408	1611
25.416	1579
25.424	1557
25.432	1545
25.44	1539
25.448	1536
25.456	1534
25.464	1533
25.472	1532
25.48	1526
25.488	1518
25.496	1507.99999999999
25.504	1486
25.512	1467
25.52	1444
25.528	1417.99999999999
25.536	1373
25.544	1319
25.552	1281
25.56	1254.99999999999
25.568	1240
25.576	1238
25.584	1253
25.592	1285.00000000002
25.6	1336
25.608	1405
25.616	1488
25.624	1581
25.632	1680
25.64	1776
25.648	1865
25.656	1941
25.664	1998
25.672	2035
25.68	2052
25.688	2048
25.696	2029
25.704	1998
25.712	1954
25.72	1902
25.728	1844
25.736	1783
25.744	1722
25.752	1660
25.76	1600
25.768	1544
25.776	1494
25.784	1450
25.792	1412
25.8	1380
25.808	1353
25.816	1332
25.824	1315
25.832	1304
25.84	1298
25.848	1295
25.856	1294
25.864	1293
25.872	1292
25.88	1290
25.888	1288
25.896	1285
25.904	1281
25.912	1274
25.92	1266
25.928	1259
25.936	1251
25.944	1242
25.952	1234
25.96	1227
25.968	1221
25.976	1217
25.984	1213
25.992	1208
26	1203
26.008	1198
26.016	1192
26.024	1186
26.032	1180
26.04	1175
26.048	1171
26.056	1166
26.064	1159
26.072	1153
26.08	1150
26.088	1156
26.096	1184
26.104	1244
26.112	1342.00000000005
26.12	1484
26.128	1668
26.136	1885
26.144	2124.00000000011
26.152	2370
26.16	2609
26.168	2828
26.176	3019.00000000008
26.184	3178
26.192	3298
26.2	3377
26.208	3418
26.216	3422
26.224	3391
26.232	3332
26.24	3249.99999999996
26.248	3152
26.256	3044
26.264	2929
26.272	2810.99999999995
26.28	2693
26.288	2579
26.296	2472
26.304	2371.99999999996
26.312	2283
26.32	2208
26.328	2143
26.336	2089.99999999998
26.344	2049
26.352	2020
26.36	1998
26.368	1981.99999999999
26.376	1971
26.384	1961
26.392	1950
26.4	1936.99999999999
26.408	1923
26.416	1906
26.424	1886
26.432	1866.99999999999
26.44	1847
26.448	1823
26.456	1797
26.464	1769.99999999999
26.472	1742
26.48	1713
26.488	1684
26.496	1653.99999999999
26.504	1625
26.512	1598
26.52	1570
26.528	1541.99999999999
26.536	1515
26.544	1489
26.552	1463
26.56	1437.99999999999
26.568	1418
26.576	1409
26.584	1416
26.592	1446.00000000002
26.6	1505
26.608	1597
26.616	1723
26.624	1881.00000000008
26.632	2064
26.64	2260
26.648	2457
26.656	2645
26.664	2814
26.672	2957
26.68	3070
26.688	3148
26.696	3191
26.704	3200
26.712	3178
26.72	3127
26.728	3051
26.736	2957
26.744	2849
26.752	2733
26.76	2616
26.768	2499
26.776	2386
26.784	2280
26.792	2182
26.8	2091
26.808	2010
26.816	1940
26.824	1880
26.832	1830
26.84	1790
26.848	1759
26.856	1736
26.864	1718
26.872	1703
26.88	1690
26.888	1678
26.896	1664
26.904	1647
26.912	1630
26.92	1611
26.928	1592
26.936	1572
26.944	1549
26.952	1524
26.96	1497
26.968	1470
26.976	1442
26.984	1414
26.992	1386
27	1358
27.008	1331
27.016	1306.99999999999
27.024	1284
27.032	1260
27.04	1235
27.048	1208.99999999999
27.056	1186
27.064	1172
27.072	1170
27.08	1187.00000000001
27.088	1232
27.096	1308
27.104	1417
27.112	1557.00000000007
27.12	1723
27.128	1905
27.136	2092
27.144	2274.00000000008
27.152	2441
27.16	2585
27.168	2700
27.176	2782.00000000003
27.184	2831
27.192	2848
27.2	2834
27.208	2793.99999999998
27.216	2730
27.224	2647
27.232	2553
27.24	2451.99999999995
27.248	2347
27.256	2242
27.264	2140
27.272	2043.99999999996
27.28	1953
27.288	1870
27.296	1796
27.304	1731.99999999997
27.312	1678
27.32	1635
27.328	1604
27.336	1580.99999999999
27.344	1566
27.352	1556
27.36	1549
27.368	1544
27.376	1537
27.384	1529
27.392	1521
27.4	1512
27.408	1501
27.416	1488
27.424	1472
27.432	1454.99999999999
27.44	1436
27.448	1413
27.456	1389
27.464	1363.99999999999
27.472	1339
27.48	1316
27.488	1292
27.496	1268.99999999999
27.504	1249
27.512	1230
27.52	1211
27.528	1191.99999999999
27.536	1173
27.544	1159
27.552	1151
27.56	1152
27.568	1166
27.576	1202
27.584	1241
27.592	1289.00000000003
27.6	1370
27.608	1477
27.616	1602
27.624	1733.00000000006
27.632	1864
27.64	1988
27.648	2099
27.656	2190
27.664	2257
27.672	2300
27.68	2317
27.688	2311
27.696	2284
27.704	2239
27.712	2180
27.72	2110
27.728	2034
27.736	1955
27.744	1877
27.752	1802
27.76	1730
27.768	1663
27.776	1603
27.784	1549
27.792	1503
27.8	1466
27.808	1437
27.816	1416
27.824	1400
27.832	1389
27.84	1383
27.848	1380
27.856	1377
27.864	1374
27.872	1370
27.88	1366
27.888	1361
27.896	1354
27.904	1345
27.912	1338
27.92	1330
27.928	1319
27.936	1306
27.944	1290
27.952	1272
27.96	1254
27.968	1236
27.976	1218
27.984	1200
27.992	1182
28	1166
28.008	1151
28.016	1135.99999999999
28.024	1122
28.032	1113
28.04	1111
28.048	1119.00000000001
28.056	1143
28.064	1187
28.072	1254
28.08	1344.00000000004
28.088	1456
28.096	1585
28.104	1723
28.112	1862.00000000006
28.12	1994
28.128	2115
28.136	2220
28.144	2302.00000000003
28.152	2359
28.16	2390
28.168	2395
28.176	2376.99999999999
28.184	2338
28.192	2282
28.2	2214
28.208	2138.99999999997
28.216	2060
28.224	1978
28.232	1898
28.24	1820.99999999997
28.248	1749
28.256	1681
28.264	1620
28.272	1567.99999999998
28.28	1524
28.288	1489
28.296	1464
28.304	1445.99999999999
28.312	1434
28.32	1427
28.328	1424
28.336	1422
28.344	1422
28.352	1423
28.36	1424
28.368	1423
28.376	1421
28.384	1419
28.392	1416
28.4	1409
28.408	1400
28.416	1388
28.424	1374
28.432	1358.99999999999
28.44	1345
28.448	1331
28.456	1316
28.464	1300.99999999999
28.472	1287
28.48	1272
28.488	1257
28.496	1243.99999999999
28.504	1233
28.512	1228
28.52	1231
28.528	1248.00000000001
28.536	1282
28.544	1340
28.552	1424
28.56	1531.00000000005
28.568	1658
28.576	1798
28.584	1946
28.592	2094.00000000006
28.6	2234
28.608	2358
28.616	2462
28.624	2543.00000000003
28.632	2597
28.64	2624
28.648	2626
28.656	2602.99999999999
28.664	2559
28.672	2500
28.68	2427
28.688	2346
28.696	2262
28.704	2178
28.712	2096
28.72	2018
28.728	1944
28.736	1876
28.744	1816
28.752	1764
28.76	1720
28.768	1685
28.776	1659
28.784	1640
28.792	1626
28.8	1616
28.808	1610
28.816	1607
28.824	1605
28.832	1602
28.84	1596
28.848	1588
28.856	1580
28.864	1571
28.872	1561
28.88	1550
28.888	1536
28.896	1519
28.904	1502
28.912	1484
28.92	1464
28.928	1443
28.936	1422
28.944	1399
28.952	1376
28.96	1354
28.968	1334
28.976	1315
28.984	1300
28.992	1292
29	1296
29.008	1316
29.016	1358.00000000002
29.024	1427
29.032	1523
29.04	1642
29.048	1780.00000000006
29.056	1931
29.064	2085
29.072	2233
29.08	2369.00000000006
29.088	2486
29.096	2579
29.104	2648
29.112	2690.00000000001
29.12	2704
29.128	2691
29.136	2654
29.144	2595.99999999997
29.152	2524
29.16	2441
29.168	2351
29.176	2258.99999999996
29.184	2168
29.192	2080
29.2	1998
29.208	1922.99999999997
29.216	1856
29.224	1796
29.232	1744
29.24	1700.99999999998
29.248	1667
29.256	1639
29.264	1616
29.272	1597.99999999999
29.28	1586
29.288	1578
29.296	1571
29.304	1564
29.312	1555
29.32	1545
29.328	1534
29.336	1519.99999999999
29.344	1504
29.352	1487
29.36	1468
29.368	1446.99999999999
29.376	1425
29.384	1400
29.392	1374
29.4	1349.99999999999
29.408	1327
29.416	1305
29.424	1283
29.432	1261.99999999999
29.44	1243
29.448	1226
29.456	1209
29.464	1195
29.472	1186
29.48	1186
29.488	1201
29.496	1235.00000000002
29.504	1291
29.512	1370
29.52	1471
29.528	1593.00000000006
29.536	1727
29.544	1867
29.552	2005
29.56	2132.00000000005
29.568	2242
29.576	2330
29.584	2393
29.592	2431.00000000001
29.6	2443
29.608	2431
29.616	2398
29.624	2346.99999999999
29.632	2326
29.64	2312
29.648	2254
29.656	2172.99999999996
29.664	2082
29.672	1988
29.68	1898
29.688	1813.99999999996
29.696	1738
29.704	1673
29.712	1620
29.72	1576
29.728	1542
29.736	1518
29.744	1502
29.752	1493
29.76	1489
29.768	1487
29.776	1486
29.784	1485
29.792	1484
29.8	1480
29.808	1474
29.816	1465
29.824	1453
29.832	1438
29.84	1420
29.848	1400
29.856	1380
29.864	1360
29.872	1337
29.88	1314
29.888	1290
29.896	1265
29.904	1243
29.912	1223
29.92	1204
29.928	1186
29.936	1171
29.944	1161
29.952	1156
29.96	1158
29.968	1171
29.976	1200
29.984	1247
29.992	1316
30	1407
30.008	1519
30.016	1649.00000000006
30.024	1790
30.032	1932
30.04	2068
30.048	2191.00000000005
30.056	2295
30.064	2374
30.072	2425
30.08	2447
30.088	2441
30.096	2410
30.104	2357
30.112	2288.99999999997
30.12	2209
30.128	2121
30.136	2031
30.144	1941.99999999996
30.152	1855
30.16	1774
30.168	1699
30.176	1632.99999999997
30.184	1577
30.192	1531
30.2	1494
30.208	1464.99999999999
30.216	1444
30.224	1429
30.232	1421
30.24	1417
30.248	1416
30.256	1416
30.264	1418
30.272	1419
30.28	1417
30.288	1413
30.296	1406
30.304	1394.99999999999
30.312	1383
30.32	1369
30.328	1353
30.336	1335.99999999999
30.344	1318
30.352	1299
30.36	1280
30.368	1259.99999999999
30.376	1240
30.384	1222
30.392	1205
30.4	1188.99999999999
30.408	1174
30.416	1161
30.424	1153
30.432	1152
30.44	1162
30.448	1189
30.456	1236
30.464	1304.00000000003
30.472	1395
30.48	1508
30.488	1639
30.496	1784.00000000007
30.504	1934
30.512	2081
30.52	2217
30.528	2333.00000000005
30.536	2424
30.544	2486
30.552	2519
30.56	2524
30.568	2500
30.576	2452
30.584	2384
30.592	2300.99999999996
30.6	2209
30.608	2112
30.616	2014
30.624	1918.99999999996
30.632	1831
30.64	1751
30.648	1680
30.656	1616.99999999997
30.664	1566
30.672	1527
30.68	1499
30.688	1480.99999999999
30.696	1472
30.704	1469
30.712	1471
30.72	1475
30.728	1479
30.736	1483
30.744	1486
30.752	1486
30.76	1483
30.768	1478
30.776	1469
30.784	1457
30.792	1442
30.8	1425
30.808	1407
30.816	1387
30.824	1367
30.832	1348
30.84	1328
30.848	1308
30.856	1289
30.864	1272
30.872	1255
30.88	1240
30.888	1230
30.896	1226
30.904	1231
30.912	1251
30.92	1291
30.928	1356
30.936	1448
30.944	1568
30.952	1711
30.96	1872
30.968	2043
30.976	2217
30.984	2383
30.992	2531
31	2653
31.008	2746
31.016	2808.00000000002
31.024	2838
31.032	2836
31.04	2804
31.048	2747.99999999997
31.056	2672
31.064	2582
31.072	2484
31.08	2379.99999999995
31.088	2275
31.096	2174
31.104	2079
31.112	1993.99999999996
31.12	1918
31.128	1854
31.136	1803
31.144	1762.99999999998
31.152	1733
31.16	1713
31.168	1700
31.176	1692
31.184	1689
31.192	1689
31.2	1690
31.208	1691
31.216	1690
31.224	1686
31.232	1679
31.24	1667.99999999999
31.248	1653
31.256	1637
31.264	1619
31.272	1597.99999999999
31.28	1576
31.288	1553
31.296	1530
31.304	1507.99999999999
31.312	1486
31.32	1464
31.328	1443
31.336	1422.99999999999
31.344	1403
31.352	1385
31.36	1372
31.368	1366
31.376	1372
31.384	1396
31.392	1445
31.4	1522.00000000004
31.408	1627
31.416	1762
31.424	1921
31.432	2095.00000000008
31.44	2272
31.448	2443
31.456	2600
31.464	2733.00000000005
31.472	2839
31.48	2914
31.488	2954
31.496	2961
31.504	2940
31.512	2892
31.52	2820
31.528	2730.99999999996
31.536	2632
31.544	2525
31.552	2415
31.56	2303.99999999995
31.568	2198
31.576	2102
31.584	2016
31.592	1941.99999999997
31.6	1881
31.608	1834
31.616	1799
31.624	1774.99999999999
31.632	1759
31.64	1749
31.648	1742
31.656	1736
31.664	1731
31.672	1726
31.68	1708
31.688	1682.99999999999
31.696	1663
31.704	1642
31.712	1620
31.72	1596.99999999999
31.728	1572
31.736	1545
31.744	1516
31.752	1486
31.76	1458
31.768	1430
31.776	1402
31.784	1374
31.792	1346
31.8	1319
31.808	1293
31.816	1266
31.824	1239
31.832	1217
31.84	1204
31.848	1204
31.856	1224
31.864	1270
31.872	1345
31.88	1450
31.888	1582
31.896	1739
31.904	1912
31.912	2089
31.92	2261
31.928	2415
31.936	2546
31.944	2649
31.952	2719
31.96	2755
31.968	2758
31.976	2729
31.984	2672
31.992	2590
32	2491
32.008	2380
32.016	2261
32.024	2143
32.032	2028.9999999999
32.04	1922
32.048	1825
32.056	1740
32.064	1667
32.072	1606
32.08	1555
32.088	1515
32.096	1484.99999999998
32.104	1465
32.112	1451
32.12	1442
32.128	1439
32.136	1441
32.144	1443
32.152	1444
32.16	1441
32.168	1435
32.176	1427
32.184	1415
32.192	1398
32.2	1377
32.208	1355
32.216	1334
32.224	1312.99999999998
32.232	1291
32.24	1267
32.248	1241
32.256	1215
32.264	1190
32.272	1167
32.28	1147
32.288	1128.99999999999
32.296	1114
32.304	1103
32.312	1099
32.32	1104
32.328	1123
32.336	1159
32.344	1215
32.352	1295.00000000008
32.36	1399
32.368	1526
32.376	1669
32.384	1821
32.392	1972
32.4	2113
32.408	2238
32.416	2338.00000000007
32.424	2407
32.432	2444
32.44	2450
32.448	2424
32.456	2370
32.464	2295
32.472	2204
32.48	2100.99999999991
32.488	1993
32.496	1885
32.504	1781
32.512	1684
32.52	1595
32.528	1519
32.536	1456
32.544	1403.99999999996
32.552	1364
32.56	1336
32.568	1319
32.576	1311
32.584	1309
32.592	1311
32.6	1315
32.608	1320
32.616	1325
32.624	1329
32.632	1330
32.64	1327
32.648	1322
32.656	1315
32.664	1306
32.672	1292.99999999999
32.68	1277
32.688	1257
32.696	1234
32.704	1209
32.712	1185
32.72	1161
32.728	1138
32.736	1115.99999999998
32.744	1094
32.752	1074
32.76	1058
32.768	1046
32.776	1041
32.784	1047
32.792	1068
32.8	1107
32.808	1169
32.816	1255
32.824	1364
32.832	1494
32.84	1641
32.848	1800
32.856	1960
32.864	2112
32.872	2249
32.88	2363
32.888	2447
32.896	2496
32.904	2508
32.912	2486
32.92	2433
32.928	2356
32.936	2261
32.944	2156
32.952	2045
32.96	1933
32.968	1824
32.976	1722
32.984	1629
32.992	1547
33	1479
33.008	1424
33.016	1381
33.024	1353
33.032	1336.99999999999
33.04	1331
33.048	1331
33.056	1333
33.064	1337
33.072	1341
33.08	1344
33.088	1345
33.096	1344
33.104	1340
33.112	1333
33.12	1324
33.128	1312
33.136	1298
33.144	1282
33.152	1263
33.16	1241.99999999998
33.168	1220
33.176	1198
33.184	1175
33.192	1153
33.2	1133
33.208	1114
33.216	1095
33.224	1080.99999999999
33.232	1073
33.24	1073
33.248	1086
33.256	1116
33.264	1170
33.272	1251
33.28	1360
33.288	1496.00000000013
33.296	1655
33.304	1829
33.312	2008
33.32	2184
33.328	2348
33.336	2489
33.344	2603
33.352	2684.00000000005
33.36	2727
33.368	2735
33.376	2708
33.384	2648
33.392	2563
33.4	2462
33.408	2349
33.416	2229.99999999989
33.424	2110
33.432	1994
33.44	1887
33.448	1791
33.456	1707
33.464	1637
33.472	1580
33.48	1535.99999999997
33.488	1504
33.496	1484
33.504	1474
33.512	1470
33.52	1471
33.528	1475
33.536	1479
33.544	1482
33.552	1483
33.56	1483
33.568	1479
33.576	1473
33.584	1467
33.592	1459
33.6	1447
33.608	1429.99999999998
33.616	1408
33.624	1383
33.632	1358
33.64	1334
33.648	1312
33.656	1291
33.664	1272
33.672	1252.99999999998
33.68	1237
33.688	1225
33.696	1221
33.704	1231
33.712	1259
33.72	1313
33.728	1422
33.736	1579.00000000015
33.744	1757
33.752	1956
33.76	2170
33.768	2390
33.776	2604
33.784	2799
33.792	2966
33.8	3096
33.808	3185
33.816	3234
33.824	3241
33.832	3210
33.84	3143
33.848	3046
33.856	2927
33.864	2795
33.872	2655
33.88	2514
33.888	2377
33.896	2249
33.904	2135
33.912	2035
33.92	1949
33.928	1880
33.936	1826
33.944	1785
33.952	1756
33.96	1737
33.968	1727
33.976	1722
33.984	1719
33.992	1718
34	1717
34.008	1716
34.016	1711
34.024	1704
34.032	1694.99999999999
34.04	1684
34.048	1669
34.056	1651
34.064	1628
34.072	1601
34.08	1573
34.088	1543
34.096	1511.99999999997
34.104	1479
34.112	1446
34.12	1415
34.128	1388
34.136	1361
34.144	1338
34.152	1323
34.16	1321
34.168	1339
34.176	1383
34.184	1459
34.192	1572
34.2	1720
34.208	1899
34.216	2101
34.224	2316.00000000019
34.232	2529
34.24	2727
34.248	2900
34.256	3038
34.264	3137
34.272	3196
34.28	3211
34.288	3184.99999999997
34.296	3121
34.304	3023
34.312	2898
34.32	2755
34.328	2602
34.336	2444
34.344	2290
34.352	2145.99999999988
34.36	2016
34.368	1901
34.376	1804
34.384	1722
34.392	1654
34.4	1603
34.408	1567
34.416	1542.99999999998
34.424	1528
34.432	1518
34.44	1513
34.448	1511
34.456	1510
34.464	1508
34.472	1504
34.48	1496.99999999999
34.488	1487
34.496	1472
34.504	1452
34.512	1429
34.52	1404
34.528	1376
34.536	1345
34.544	1313.99999999997
34.552	1283
34.56	1252
34.568	1221
34.576	1191
34.584	1161
34.592	1132
34.6	1105
34.608	1084.99999999999
34.616	1074
34.624	1075
34.632	1096
34.64	1142
34.648	1218
34.656	1327
34.664	1468
34.672	1635.00000000016
34.68	1823
34.688	2022
34.696	2220
34.704	2404
34.712	2562
34.72	2686
34.728	2770
34.736	2811
34.744	2811
34.752	2772
34.76	2696
34.768	2591
34.776	2466
34.784	2326
34.792	2180
34.8	2035.99999999988
34.808	1899
34.816	1772
34.824	1658
34.832	1561
34.84	1481
34.848	1417
34.856	1369
34.864	1335
34.872	1311
34.88	1296
34.888	1290
34.896	1290
34.904	1292
34.912	1294
34.92	1295
34.928	1295
34.936	1293
34.944	1288
34.952	1278
34.96	1265
34.968	1252
34.976	1237
34.984	1220
34.992	1199
35	1175
35.008	1149
35.016	1123
35.024	1098
35.032	1071.99999999998
35.04	1047
35.048	1026
35.056	1009
35.064	998
35.072	993
35.08	998
35.088	1017
35.096	1056.00000000004
35.104	1118
35.112	1210
35.12	1333
35.128	1485
35.136	1661
35.144	1854
35.152	2052
35.16	2242.00000000016
35.168	2412
35.176	2552
35.184	2654
35.192	2712
35.2	2723
35.208	2691
35.216	2622
35.224	2519.9999999999
35.232	2394
35.24	2254
35.248	2106
35.256	1957
35.264	1815
35.272	1686
35.28	1574
35.288	1479.99999999993
35.296	1405
35.304	1348
35.312	1305
35.32	1277
35.328	1261
35.336	1255
35.344	1256
35.352	1261.00000000001
35.36	1269
35.368	1278
35.376	1286
35.384	1291
35.392	1293
35.4	1290
35.408	1283
35.416	1272.99999999999
35.424	1258
35.432	1240
35.44	1219
35.448	1195
35.456	1168
35.464	1137
35.472	1107
35.48	1077.99999999997
35.488	1050
35.496	1026
35.504	1005
35.512	989
35.52	979
35.528	978
35.536	989
35.544	1021.00000000004
35.552	1079
35.56	1168
35.568	1291
35.576	1449
35.584	1636
35.592	1843
35.6	2061
35.608	2276.00000000018
35.616	2476
35.624	2648
35.632	2783
35.64	2875
35.648	2919
35.656	2916
35.664	2869
35.672	2784.9999999999
35.68	2602
35.688	2458
35.696	2303
35.704	1998
35.712	1858
35.72	1732
35.728	1534
35.736	1465.99999999995
35.744	1417
35.752	1386
35.76	1393
35.768	1399
35.776	1407
35.784	1416
35.792	1425
35.8	1434.00000000001
35.808	1440
35.816	1444
35.824	1446
35.832	1445
35.84	1441
35.848	1428
35.856	1415
35.864	1398
35.872	1366
35.88	1344
35.888	1322
35.896	1300
35.904	1280
35.912	1262
35.92	1245
35.928	1229
35.936	1215
35.944	1206
35.952	1207
35.96	1226
35.968	1266
35.976	1332
35.984	1429
35.992	1559
36	1717
36.008	1897
36.016	2090
36.024	2284
36.032	2468.00000000015
36.04	2630
36.048	2761
36.056	2856
36.064	2910
36.072	2924
36.08	2900
36.088	2842
36.096	2754.99999999991
36.104	2646
36.112	2520
36.12	2385
36.128	2250
36.136	2118
36.144	1996
36.152	1888
36.16	1796.99999999993
36.168	1723
36.176	1664
36.184	1621
36.192	1591
36.2	1572
36.208	1564
36.216	1563
36.224	1566
36.232	1571
36.24	1577
36.248	1582
36.256	1585
36.264	1586
36.272	1584
36.28	1580
36.288	1572.99999999999
36.296	1563
36.304	1549
36.312	1532
36.32	1512
36.328	1488
36.336	1463
36.344	1440
36.352	1413.99999999998
36.36	1387
36.368	1361
36.376	1336
36.384	1312
36.392	1292
36.4	1282
36.408	1288
36.416	1316.00000000003
36.424	1373
36.432	1465
36.44	1594
36.448	1758
36.456	1948
36.464	2154
36.472	2364
36.48	2564.00000000017
36.488	2743
36.496	2891
36.504	3000
36.512	3067
36.52	3093
36.528	3077
36.536	3023
36.544	2936.99999999991
36.552	2825
36.56	2695
36.568	2554
36.576	2410
36.584	2269
36.592	2137
36.6	2018
36.608	1912.99999999992
36.616	1826
36.624	1755
36.632	1700
36.64	1658
36.648	1627
36.656	1606
36.664	1592
36.672	1582.99999999999
36.68	1578
36.688	1574
36.696	1570
36.704	1566
36.712	1560
36.72	1552
36.728	1543
36.736	1531.99999999999
36.744	1517
36.752	1497
36.76	1473
36.768	1448
36.776	1418
36.784	1385
36.792	1353
36.8	1319.99999999997
36.808	1286
36.816	1252
36.824	1218
36.832	1187
36.84	1159
36.848	1135
36.856	1122
36.864	1126.00000000001
36.872	1154
36.88	1212
36.888	1306
36.896	1436
36.904	1598
36.912	1786
36.92	1988
36.928	2190
36.936	2379
36.944	2543
36.952	2673
36.96	2764
36.968	2812
36.976	2817
36.984	2782
36.992	2710
37	2607
37.008	2480
37.016	2336
37.024	2185
37.032	2033.99999999987
37.04	1889
37.048	1757
37.056	1639
37.064	1538
37.072	1454
37.08	1388
37.088	1339
37.096	1304.99999999998
37.104	1284
37.112	1272
37.12	1267
37.128	1268
37.136	1271
37.144	1275
37.152	1278
37.16	1279
37.168	1279
37.176	1277
37.184	1273
37.192	1266
37.2	1255
37.208	1241
37.216	1222
37.224	1198.99999999998
37.232	1176
37.24	1151
37.248	1125
37.256	1099
37.264	1074
37.272	1048
37.28	1023
37.288	1000.99999999998
37.296	981
37.304	966
37.312	960
37.32	968
37.328	997
37.336	1054
37.344	1140
37.352	1257.00000000012
37.36	1404
37.368	1574
37.376	1759
37.384	1948
37.392	2126
37.4	2281
37.408	2405
37.416	2492.00000000005
37.424	2538
37.432	2541
37.44	2504
37.448	2432
37.456	2331
37.464	2208
37.472	2071
37.48	1928.99999999987
37.488	1788
37.496	1654
37.504	1532
37.512	1427
37.52	1341
37.528	1272
37.536	1220
37.544	1184.99999999998
37.552	1164
37.56	1153
37.568	1150
37.576	1152
37.584	1159
37.592	1169
37.6	1178
37.608	1185.00000000001
37.616	1191
37.624	1194
37.632	1194
37.64	1192
37.648	1188
37.656	1180
37.664	1167
37.672	1150.99999999998
37.68	1130
37.688	1104
37.696	1078
37.704	1051
37.712	1024
37.72	997
37.728	970
37.736	944.999999999981
37.744	926
37.752	912
37.76	907
37.768	914
37.776	937
37.784	985
37.792	1099
37.8	1257.00000000014
37.808	1409
37.816	1568
37.824	1734
37.832	1902
37.84	2063
37.848	2208
37.856	2327
37.864	2415.00000000006
37.872	2468
37.88	2483
37.888	2461
37.896	2407
37.904	2327
37.912	2225
37.92	2108
37.928	1983
37.936	1858
37.944	1739
37.952	1631
37.96	1536
37.968	1456
37.976	1392
37.984	1344
37.992	1310
38	1288
38.008	1276
38.016	1272
38.024	1275
38.032	1282.00000000001
38.04	1290
38.048	1300
38.056	1310
38.064	1318
38.072	1323
38.08	1325
38.088	1324
38.096	1318.99999999999
38.104	1310
38.112	1297
38.12	1282
38.128	1263
38.136	1243
38.144	1222
38.152	1199
38.16	1176.99999999998
38.168	1154
38.176	1131
38.184	1111
38.192	1093
38.2	1079
38.208	1072
38.216	1077
38.224	1100.00000000003
38.232	1144
38.24	1215
38.248	1317
38.256	1449
38.264	1605
38.272	1776
38.28	1953
38.288	2125.00000000014
38.296	2280
38.304	2409
38.312	2506
38.32	2566
38.328	2588
38.336	2572
38.344	2522
38.352	2442.99999999992
38.36	2341
38.368	2223
38.376	2097
38.384	1970
38.392	1848
38.4	1736
38.408	1637
38.416	1552.99999999993
38.424	1484
38.432	1430
38.44	1390
38.448	1363
38.456	1348
38.464	1342
38.472	1343
38.48	1348
38.488	1353
38.496	1359
38.504	1365
38.512	1369
38.52	1371
38.528	1372
38.536	1370
38.544	1366
38.552	1360
38.56	1351
38.568	1341
38.576	1328
38.584	1312
38.592	1294
38.6	1273
38.608	1251.99999999998
38.616	1231
38.624	1211
38.632	1191
38.64	1173
38.648	1158
38.656	1148
38.664	1150
38.672	1171.00000000003
38.68	1218
38.688	1295
38.696	1408
38.704	1553
38.712	1725
38.72	1914
38.728	2106
38.736	2288.00000000015
38.744	2449
38.752	2580
38.76	2673
38.768	2728
38.776	2742
38.784	2718
38.792	2661
38.8	2576.99999999992
38.808	2472
38.816	2352
38.824	2224
38.832	2094
38.84	1968
38.848	1850
38.856	1745
38.864	1655.99999999993
38.872	1581
38.88	1522
38.888	1478
38.896	1448
38.904	1429
38.912	1420
38.92	1417
38.928	1419
38.936	1423
38.944	1427
38.952	1431
38.96	1434
38.968	1435
38.976	1435
38.984	1433
38.992	1429
39	1422
39.008	1411
39.016	1396
39.024	1377
39.032	1356.99999999998
39.04	1335
39.048	1313
39.056	1291
39.064	1268
39.072	1246
39.08	1225
39.088	1204
39.096	1183.99999999998
39.104	1169
39.112	1164
39.12	1175
39.128	1212
39.136	1279
39.144	1382
39.152	1519
39.16	1684.00000000015
39.168	1867
39.176	2058
39.184	2242
39.192	2407
39.2	2543
39.208	2643
39.216	2704
39.224	2723
39.232	2704
39.24	2651
39.248	2570
39.256	2465
39.264	2342
39.272	2208
39.28	2072
39.288	1937.99999999988
39.296	1812
39.304	1698
39.312	1598
39.32	1513
39.328	1444
39.336	1391
39.344	1352
39.352	1323.99999999998
39.36	1306
39.368	1295
39.376	1290
39.384	1287
39.392	1285
39.4	1283
39.408	1281
39.416	1277
39.424	1271
39.432	1264
39.44	1255
39.448	1244
39.456	1231
39.464	1217
39.472	1200
39.48	1180.99999999998
39.488	1159
39.496	1134
39.504	1108
39.512	1082
39.52	1055
39.528	1028
39.536	1002
39.544	976.99999999998
39.552	956
39.56	941
39.568	937
39.576	950
39.584	987
39.592	1055
39.6	1155
39.608	1286.00000000013
39.616	1444
39.624	1621
39.632	1805
39.64	1981
39.648	2137
39.656	2264
39.664	2354
39.672	2405.00000000002
39.68	2418
39.688	2394
39.696	2337
39.704	2254
39.712	2150
39.72	2031
39.728	1905
39.736	1778.99999999989
39.744	1658
39.752	1546
39.76	1447
39.768	1363
39.776	1295
39.784	1242
39.792	1202
39.8	1174.99999999998
39.808	1159
39.816	1151
39.824	1150
39.832	1152
39.84	1199
39.848	1270
39.856	1309
39.864	1332.00000000001
39.872	1345
39.88	1353
39.888	1356
39.896	1354
39.904	1349
39.912	1341
39.92	1330
39.928	1314.99999999999
39.936	1298
39.944	1279
39.952	1258
39.96	1235
39.968	1211
39.976	1188
39.984	1167
39.992	1149
40	1134
40.008	1122
40.016	1117
40.024	1123
40.032	1145.00000000003
40.04	1190
40.048	1264
40.056	1370
40.064	1505
40.072	1664
40.08	1836
40.088	2012
40.096	2180.00000000014
40.104	2327
40.112	2443
40.12	2522
40.128	2561
40.136	2562
40.144	2526
40.152	2458
40.16	2365.99999999991
40.168	2257
40.176	2138
40.184	2015
40.192	1896
40.2	1784
40.208	1684
40.216	1597
40.224	1524.99999999994
40.232	1469
40.24	1427
40.248	1398
40.256	1380
40.264	1371
40.272	1370
40.28	1373
40.288	1380.00000000001
40.296	1389
40.304	1398
40.312	1404
40.32	1408
40.328	1409
40.336	1408
40.344	1405
40.352	1401
40.36	1395
40.368	1387
40.376	1376
40.384	1360
40.392	1341
40.4	1321
40.408	1300
40.416	1277.99999999998
40.424	1256
40.432	1234
40.44	1211
40.448	1192
40.456	1177
40.464	1168
40.472	1167
40.48	1182.00000000002
40.488	1219
40.496	1284
40.504	1380
40.512	1508
40.52	1665
40.528	1841
40.536	2024
40.544	2201.00000000015
40.552	2361
40.56	2493
40.568	2588
40.576	2643
40.584	2661
40.592	2642
40.6	2589
40.608	2508.99999999992
40.616	2408
40.624	2293
40.632	2171
40.64	2047
40.648	1927
40.656	1816
40.664	1717
40.672	1632.99999999993
40.68	1564
40.688	1511
40.696	1473
40.704	1447
40.712	1432
40.72	1425
40.728	1424
40.736	1426
40.744	1431
40.752	1439
40.76	1447
40.768	1454
40.776	1459
40.784	1461
40.792	1460
40.8	1456
40.808	1449
40.816	1439
40.824	1427
40.832	1414
40.84	1398
40.848	1381
40.856	1363
40.864	1342.99999999998
40.872	1322
40.88	1301
40.888	1282
40.896	1263
40.904	1247
40.912	1235
40.92	1231
40.928	1242.00000000001
40.936	1276
40.944	1341
40.952	1441
40.96	1576
40.968	1741
40.976	1928
40.984	2124
40.992	2315
41	2489
41.008	2634
41.016	2742
41.024	2810
41.032	2836
41.04	2824
41.048	2778
41.056	2704
41.064	2609
41.072	2499
41.08	2379
41.088	2257
41.096	2138.9999999999
41.104	2027
41.112	1925
41.12	1837
41.128	1764
41.136	1706
41.144	1664
41.152	1635
41.16	1617.99999999999
41.168	1609
41.176	1607
41.184	1610
41.192	1614
41.2	1619
41.208	1625
41.216	1629
41.224	1631
41.232	1632
41.24	1631
41.248	1628
41.256	1623
41.264	1617
41.272	1607
41.28	1593
41.288	1576.99999999998
41.296	1559
41.304	1539
41.312	1518
41.32	1496
41.328	1474
41.336	1451
41.344	1428
41.352	1404.99999999998
41.36	1385
41.368	1371
41.376	1370
41.384	1389
41.392	1438
41.4	1523
41.408	1647
41.416	1808.00000000015
41.424	1998
41.432	2203
41.44	2408
41.448	2597
41.456	2758
41.464	2879
41.472	2958
41.48	2996
41.488	2995
41.496	2959
41.504	2895
41.512	2808
41.52	2703
41.528	2587
41.536	2465
41.544	2342.99999999989
41.552	2224
41.56	2113
41.568	2016
41.576	1932
41.584	1862
41.592	1807
41.6	1767
41.608	1737.99999999998
41.616	1717
41.624	1705
41.632	1699
41.64	1696
41.648	1694
41.656	1692
41.664	1688
41.672	1681.99999999999
41.68	1675
41.688	1667
41.696	1656
41.704	1643
41.712	1630
41.72	1615
41.728	1598
41.736	1576.99999999998
41.744	1554
41.752	1530
41.76	1506
41.768	1481
41.776	1456
41.784	1429
41.792	1403
41.8	1375.99999999998
41.808	1347
41.816	1321
41.824	1302
41.832	1295
41.84	1308
41.848	1348
41.856	1424
41.864	1539.00000000012
41.872	1690
41.88	1866
41.888	2049
41.896	2230
41.904	2400
41.912	2545
41.92	2656
41.928	2726.00000000004
41.936	2755
41.944	2747
41.952	2706
41.96	2636
41.968	2544
41.976	2436
41.984	2317
41.992	2193
42	2070
42.008	1951
42.016	1841
42.024	1744
42.032	1660.99999999993
42.04	1593
42.048	1538
42.056	1497
42.064	1470
42.072	1452
42.08	1442
42.088	1438
42.096	1438
42.104	1440
42.112	1443
42.12	1446
42.128	1446
42.136	1444
42.144	1440
42.152	1434
42.16	1425.99999999999
42.168	1415
42.176	1402
42.184	1388
42.192	1374
42.2	1359
42.208	1343
42.216	1324
42.224	1302.99999999998
42.232	1283
42.24	1263
42.248	1243
42.256	1223
42.264	1203
42.272	1184
42.28	1169
42.288	1162
42.296	1166
42.304	1190
42.312	1241
42.32	1324
42.328	1439
42.336	1583
42.344	1748
42.352	1922.00000000015
42.36	2092
42.368	2246
42.376	2374
42.384	2469
42.392	2527
42.4	2546
42.408	2528
42.416	2479.99999999995
42.424	2408
42.432	2318
42.44	2216
42.448	2107
42.456	1998
42.464	1892
42.472	1792
42.48	1701.99999999993
42.488	1624
42.496	1559
42.504	1509
42.512	1471
42.52	1445
42.528	1431
42.536	1425
42.544	1425
42.552	1430
42.56	1437
42.568	1446
42.576	1454
42.584	1459
42.592	1462
42.6	1463
42.608	1463
42.616	1460
42.624	1453
42.632	1444
42.64	1432
42.648	1417
42.656	1401
42.664	1383
42.672	1363.99999999998
42.68	1344
42.688	1323
42.696	1304
42.704	1285
42.712	1268
42.72	1251
42.728	1235
42.736	1221.99999999999
42.744	1215
42.752	1222
42.76	1246
42.768	1294
42.776	1372
42.784	1482
42.792	1621
42.8	1782.00000000015
42.808	1954
42.816	2126
42.824	2285
42.832	2420
42.84	2521
42.848	2584
42.856	2608
42.864	2595.99999999998
42.872	2552
42.88	2483
42.888	2395
42.896	2293
42.904	2185
42.912	2076
42.92	1970
42.928	1870.99999999992
42.936	1783
42.944	1707
42.952	1643
42.96	1593
42.968	1556
42.976	1530
42.984	1514
42.992	1506
43	1505
43.008	1508
43.016	1512
43.024	1518
43.032	1524
43.04	1528
43.048	1529
43.056	1527
43.064	1521
43.072	1513
43.08	1504
43.088	1493
43.096	1481.99999999999
43.104	1469
43.112	1454
43.12	1437
43.128	1420
43.136	1402
43.144	1384
43.152	1365
43.16	1346.99999999998
43.168	1329
43.176	1311
43.184	1294
43.192	1280
43.2	1273
43.208	1278
43.216	1302
43.224	1354.00000000006
43.232	1439
43.24	1558
43.248	1706
43.256	1878
43.264	2063
43.272	2246
43.28	2413
43.288	2555.00000000011
43.296	2663
43.304	2732
43.312	2760
43.32	2751
43.328	2711
43.336	2644
43.344	2555
43.352	2451.99999999991
43.36	2342
43.368	2231
43.376	2122
43.384	2018
43.392	1924
43.4	1842
43.408	1774
43.416	1719.99999999996
43.424	1679
43.432	1651
43.44	1633
43.448	1624
43.456	1621
43.464	1623
43.472	1629
43.48	1635
43.488	1639
43.496	1642
43.504	1643
43.512	1643
43.52	1641
43.528	1636
43.536	1627
43.544	1616.99999999999
43.552	1607
43.56	1596
43.568	1581
43.576	1565
43.584	1548
43.592	1529
43.6	1511
43.608	1492.99999999998
43.616	1476
43.624	1459
43.632	1442
43.64	1425
43.648	1410
43.656	1400
43.664	1403
43.672	1429.00000000003
43.68	1486
43.688	1577
43.696	1705
43.704	1868
43.712	2056
43.72	2254
43.728	2448
43.736	2625.00000000014
43.744	2773
43.752	2882
43.76	2947
43.768	2971
43.776	2957
43.784	2912
43.792	2842
43.8	2752.99999999992
43.808	2653
43.816	2545
43.824	2434
43.832	2326
43.84	2224
43.848	2130
43.856	2047
43.864	1977.99999999994
43.872	1921
43.88	1877
43.888	1846
43.896	1826
43.904	1814
43.912	1808
43.92	1807
43.928	1809
43.936	1801
43.944	1787
43.952	1779
43.96	1772
43.968	1764
43.976	1756
43.984	1746
43.992	1731.99999999999
44	1714
44.008	1695
44.016	1676
44.024	1653
44.032	1628.99999999998
44.04	1604
44.048	1579
44.056	1558
44.064	1538
44.072	1518
44.08	1499
44.088	1482
44.096	1464.99999999999
44.104	1449
44.112	1436
44.12	1432
44.128	1444
44.136	1480
44.144	1548
44.152	1653
44.16	1795.00000000014
44.168	1967
44.176	2158
44.184	2351
44.192	2533
44.2	2691
44.208	2814
44.216	2896
44.224	2936
44.232	2937
44.24	2904
44.248	2841
44.256	2757
44.264	2656
44.272	2543
44.28	2427
44.288	2310.9999999999
44.296	2197
44.304	2089
44.312	1992
44.32	1907
44.328	1836
44.336	1777
44.344	1731
44.352	1697.99999999998
44.36	1675
44.368	1661
44.376	1652
44.384	1646
44.392	1643
44.4	1641
44.408	1637
44.416	1629.99999999999
44.424	1620
44.432	1608
44.44	1592
44.448	1573
44.456	1553
44.464	1531
44.472	1507
44.48	1481.99999999998
44.488	1456
44.496	1430
44.504	1405
44.512	1380
44.52	1356
44.528	1335
44.536	1314
44.544	1292.99999999998
44.552	1273
44.56	1251
44.568	1229
44.576	1211
44.584	1200
44.592	1200
44.6	1220
44.608	1268.00000000005
44.616	1349
44.624	1466
44.632	1614
44.64	1783
44.648	1963
44.656	2141
44.664	2302
44.672	2435.0000000001
44.68	2534
44.688	2592
44.696	2612
44.704	2597
44.712	2550
44.72	2477
44.728	2388
44.736	2287.99999999991
44.744	2181
44.752	2073
44.76	1968
44.768	1869
44.776	1780
44.784	1701
44.792	1634
44.8	1578.99999999996
44.808	1537
44.816	1506
44.824	1485
44.832	1473
44.84	1468
44.848	1467
44.856	1469
44.864	1472
44.872	1474
44.88	1473
44.888	1470
44.896	1464
44.904	1455
44.912	1444
44.92	1430
44.928	1414.99999999999
44.936	1398
44.944	1377
44.952	1357
44.96	1337
44.968	1316
44.976	1295
44.984	1276
44.992	1256.99999999998
45	1239
45.008	1223
45.016	1209
45.024	1195
45.032	1179.99999999999
45.04	1165
45.048	1155
45.056	1155
45.064	1171
45.072	1209
45.08	1275
45.088	1372
45.096	1497.00000000012
45.104	1646
45.112	1810
45.12	1977
45.128	2135
45.136	2273
45.144	2382
45.152	2456
45.16	2493
45.168	2495
45.176	2464
45.184	2405
45.192	2327
45.2	2234
45.208	2132
45.216	2028
45.224	1926.99999999991
45.232	1832
45.24	1743
45.248	1665
45.256	1599
45.264	1544
45.272	1500
45.28	1469
45.288	1449.99999999999
45.296	1440
45.304	1438
45.312	1441
45.32	1447
45.328	1455
45.336	1463
45.344	1469
45.352	1473
45.36	1474
45.368	1472
45.376	1467
45.384	1459
45.392	1447
45.4	1431
45.408	1414
45.416	1394.99999999998
45.424	1374
45.432	1354
45.44	1336
45.448	1317
45.456	1297
45.464	1277
45.472	1257
45.48	1236.99999999998
45.488	1219
45.496	1202
45.504	1186
45.512	1174
45.52	1172
45.528	1187
45.536	1226
45.544	1294.00000000007
45.552	1395
45.56	1528
45.568	1686
45.576	1861
45.584	2041
45.592	2211
45.6	2360
45.608	2478.00000000009
45.616	2560
45.624	2605
45.632	2614
45.64	2588
45.648	2532
45.656	2454
45.664	2361
45.672	2258.99999999991
45.68	2154
45.688	2050
45.696	1949
45.704	1854
45.712	1768
45.72	1693
45.728	1630
45.736	1579.99999999996
45.744	1543
45.752	1518
45.76	1503
45.768	1498
45.776	1499
45.784	1505
45.792	1514
45.8	1523.00000000001
45.808	1531
45.816	1537
45.824	1540
45.832	1540
45.84	1537
45.848	1530
45.856	1518
45.864	1501.99999999998
45.872	1484
45.88	1465
45.888	1445
45.896	1425
45.904	1405
45.912	1384
45.92	1363
45.928	1344.99999999999
45.936	1330
45.944	1315
45.952	1300
45.96	1285
45.968	1272
45.976	1262
45.984	1249
45.992	1248
46	1283
46.008	1358
46.016	1472
46.024	1622
46.032	1801.00000000017
46.04	1997
46.048	2195
46.056	2380.00000000015
46.064	2539
46.072	2666
46.08	2775
46.088	2802
46.096	2791.99999999998
46.104	2682
46.112	2596
46.12	2496
46.128	2334
46.136	2225
46.144	2121
46.152	2024
46.16	1935.99999999993
46.168	1859
46.176	1795
46.184	1744
46.192	1690
46.2	1668
46.208	1656
46.216	1655
46.224	1660
46.232	1666
46.24	1674
46.248	1676
46.256	1675
46.264	1671
46.272	1663
46.28	1653
46.288	1640.99999999999
46.296	1626
46.304	1608
46.312	1588
46.32	1565
46.328	1541
46.336	1517
46.344	1494
46.352	1470.99999999998
46.36	1448
46.368	1425
46.376	1404
46.384	1383
46.392	1362
46.4	1340
46.408	1321
46.416	1311
46.424	1319
46.432	1354
46.44	1422
46.448	1529
46.456	1675
46.464	1852
46.472	2050
46.48	2255.00000000018
46.488	2450
46.496	2620
46.504	2757
46.512	2856
46.52	2913
46.528	2930
46.536	2909
46.544	2857.99999999995
46.552	2781
46.56	2687
46.568	2583
46.576	2475
46.584	2367
46.592	2262
46.6	2162
46.608	2069.99999999992
46.616	1989
46.624	1920
46.632	1860
46.64	1811
46.648	1775
46.656	1750
46.664	1735
46.672	1729
46.68	1728
46.688	1729
46.696	1731
46.704	1731
46.712	1728
46.72	1721
46.728	1712
46.736	1698.99999999999
46.744	1683
46.752	1664
46.76	1642
46.768	1618
46.776	1591
46.784	1563
46.792	1534
46.8	1503.99999999997
46.808	1473
46.816	1442
46.824	1412
46.832	1384
46.84	1357
46.848	1330
46.856	1303
46.864	1277.99999999998
46.872	1255
46.88	1237
46.888	1227
46.896	1233
46.904	1263
46.912	1324
46.92	1420
46.928	1550.00000000013
46.936	1709
46.944	1888
46.952	2073
46.96	2251
46.968	2406
46.976	2530
46.984	2620
46.992	2672.00000000002
47	2685
47.008	2663
47.016	2611
47.024	2536
47.032	2443.99999999991
47.04	2342
47.048	2236
47.056	2129.99999999991
47.064	2027
47.072	1929
47.08	1838
47.088	1757
47.096	1687.99999999994
47.104	1629
47.112	1581
47.12	1545
47.128	1520
47.136	1504
47.144	1496
47.152	1494
47.16	1497
47.168	1504
47.176	1511
47.184	1516
47.192	1517
47.2	1515
47.208	1509
47.216	1498
47.224	1482.99999999999
47.232	1467
47.24	1448
47.248	1426
47.256	1403
47.264	1380
47.272	1355
47.28	1330
47.288	1304.99999999998
47.296	1281
47.304	1259
47.312	1239
47.32	1219
47.328	1199
47.336	1179
47.344	1160
47.352	1141.99999999999
47.36	1128
47.368	1124
47.376	1136
47.384	1171
47.392	1236
47.4	1332
47.408	1458
47.416	1607.00000000014
47.424	1769
47.432	1932
47.44	2085
47.448	2219
47.456	2326
47.464	2402
47.472	2445
47.48	2455
47.488	2434
47.496	2388
47.504	2323
47.512	2244
47.52	2155
47.528	2060
47.536	1963
47.544	1870.99999999992
47.552	1785
47.56	1706
47.568	1635
47.576	1575
47.584	1527
47.592	1491
47.6	1464
47.608	1444.99999999999
47.616	1435
47.624	1432
47.632	1433
47.64	1438
47.648	1444
47.656	1450
47.664	1456
47.672	1460
47.68	1461
47.688	1460
47.696	1455
47.704	1447
47.712	1435
47.72	1420
47.728	1403
47.736	1384.99999999998
47.744	1365
47.752	1343
47.76	1320
47.768	1297
47.776	1276
47.784	1256
47.792	1237
47.8	1217.99999999998
47.808	1198
47.816	1179
47.824	1162
47.832	1148
47.84	1144
47.848	1155
47.856	1187
47.864	1246.00000000006
47.872	1335
47.88	1455
47.888	1600
47.896	1760
47.904	1925
47.912	2086
47.92	2231
47.928	2352.00000000009
47.936	2443
47.944	2502
47.952	2528
47.96	2523
47.968	2490
47.976	2434
47.984	2361
47.992	2274.99999999992
48	2183
48.008	2088
48.016	1989
48.024	1893
48.032	1802.99999999992
48.04	1721
48.048	1649
48.056	1586.99999999995
48.064	1537
48.072	1499
48.08	1472
48.088	1456
48.096	1449
48.104	1450
48.112	1455
48.12	1463.00000000001
48.128	1472
48.136	1478
48.144	1482
48.152	1484
48.16	1482
48.168	1478
48.176	1471
48.184	1461
48.192	1449
48.2	1433
48.208	1413
48.216	1391
48.224	1367.99999999998
48.232	1345
48.24	1323
48.248	1300
48.256	1276
48.264	1253
48.272	1232
48.28	1211
48.288	1190.99999999998
48.296	1171
48.304	1154
48.312	1145
48.32	1154
48.328	1188
48.336	1252
48.344	1350
48.352	1483.00000000013
48.36	1647
48.368	1832
48.376	2025
48.384	2215
48.392	2388
48.4	2533
48.408	2646
48.416	2723.00000000005
48.424	2765
48.432	2771
48.44	2744
48.448	2691
48.456	2619
48.464	2532
48.472	2435
48.48	2332.99999999991
48.488	2231
48.496	2133
48.504	2041
48.512	1957
48.52	1882
48.528	1818
48.536	1765
48.544	1720.99999999997
48.552	1687
48.56	1664
48.568	1649
48.576	1641
48.584	1638
48.592	1639
48.6	1642
48.608	1643
48.616	1644
48.624	1642
48.632	1637
48.64	1629
48.648	1619
48.656	1609
48.664	1597
48.672	1581.99999999999
48.68	1564
48.688	1543
48.696	1520
48.704	1495
48.712	1471
48.72	1447
48.728	1423
48.736	1401.99999999998
48.744	1381
48.752	1361
48.76	1342
48.768	1321
48.776	1302
48.784	1290
48.792	1294
48.8	1323.00000000004
48.808	1386
48.816	1487
48.824	1628
48.832	1802
48.84	1997
48.848	2200
48.856	2396
48.864	2574.00000000015
48.872	2725
48.88	2841
48.888	2919
48.896	2959
48.904	2962
48.912	2933
48.92	2878
48.928	2801.99999999993
48.936	2710
48.944	2607
48.952	2500
48.96	2392
48.968	2288
48.976	2189
48.984	2099
48.992	2018.99999999993
49	1949
49.008	1891
49.016	1844
49.024	1808
49.032	1782.99999999998
49.04	1766
49.048	1755
49.056	1751
49.064	1751
49.072	1752
49.08	1753
49.088	1754
49.096	1752
49.104	1748
49.112	1740
49.12	1727.99999999999
49.128	1712
49.136	1690
49.144	1663
49.152	1635
49.16	1605.99999999997
49.168	1575
49.176	1543
49.184	1511
49.192	1481
49.2	1452
49.208	1424
49.216	1396
49.224	1367.99999999998
49.232	1340
49.24	1311
49.248	1283
49.256	1259
49.264	1246
49.272	1251
49.28	1283
49.288	1349.00000000007
49.296	1452
49.304	1589
49.312	1756
49.32	1941
49.328	2131
49.336	2312
49.344	2474
49.352	2609.0000000001
49.36	2711
49.368	2777
49.376	2805
49.384	2798
49.392	2760
49.4	2697
49.408	2616
49.416	2518.99999999991
49.424	2415
49.432	2309
49.44	2203
49.448	2100
49.456	2004
49.464	1917
49.472	1840
49.48	1770.99999999994
49.488	1712
49.496	1664
49.504	1626
49.512	1597
49.52	1577
49.528	1565
49.536	1559
49.544	1557
49.552	1557
49.56	1557
49.568	1555
49.576	1550
49.584	1541
49.592	1528
49.6	1512
49.608	1495.99999999998
49.616	1478
49.624	1457
49.632	1434
49.64	1409
49.648	1383
49.656	1356
49.664	1329
49.672	1301.99999999998
49.68	1275
49.688	1250
49.696	1226
49.704	1206
49.712	1189
49.72	1171
49.728	1152
49.736	1134.99999999999
49.744	1124
49.752	1123
49.76	1140
49.768	1182
49.776	1255
49.784	1361
49.792	1497
49.8	1657.00000000015
49.808	1830
49.816	2003
49.824	2168
49.832	2312
49.84	2427
49.848	2510
49.856	2558
49.864	2572
49.872	2556
49.88	2515
49.888	2453
49.896	2375
49.904	2286
49.912	2190
49.92	2093
49.928	1999.99999999992
49.936	1912
49.944	1830
49.952	1755
49.96	1689
49.968	1632
49.976	1582
49.984	1541
49.992	1511.99999999998
50	1491
50.008	1477
50.016	1470
50.024	1469
50.032	1472
50.04	1474
50.048	1460
50.056	1437.99999999999
50.064	1426
50.072	1418
50.08	1411
50.088	1402
50.096	1389.99999999999
50.104	1375
50.112	1357
50.12	1336.99999999998
50.128	1314
50.136	1289
50.144	1266
50.152	1243
50.16	1220.99999999998
50.168	1199
50.176	1176
50.184	1154
50.192	1134
50.2	1114
50.208	1095
50.216	1078
50.224	1063.99999999999
50.232	1059
50.24	1072
50.248	1110
50.256	1178
50.264	1277
50.272	1408
50.28	1566
50.288	1739.00000000016
50.296	1917
50.304	2090
50.312	2246
50.32	2378
50.328	2480
50.336	2548
50.344	2581
50.352	2582
50.36	2554
50.368	2502
50.376	2430
50.384	2344
50.392	2251
50.4	2154
50.408	2056
50.416	1962.99999999992
50.424	1876
50.432	1795
50.44	1723
50.448	1658
50.456	1600
50.464	1552
50.472	1514
50.48	1484.99999999998
50.488	1465
50.496	1452
50.504	1444
50.512	1440
50.52	1438
50.528	1438
50.536	1438
50.544	1437
50.552	1435
50.56	1429
50.568	1421
50.576	1411
50.584	1399
50.592	1385
50.6	1367
50.608	1346.99999999998
50.616	1326
50.624	1304
50.632	1283
50.64	1264
50.648	1245
50.656	1228
50.664	1211
50.672	1191.99999999998
50.68	1170
50.688	1148
50.696	1129
50.704	1116
50.712	1114
50.72	1130
50.728	1172
50.736	1248.00000000008
50.744	1359
50.752	1504
50.76	1674
50.768	1859
50.776	2049
50.784	2232
50.792	2396
50.8	2534.00000000011
50.808	2641
50.816	2715
50.824	2755
50.832	2760
50.84	2733
50.848	2682
50.856	2612
50.864	2529.99999999992
50.872	2439
50.88	2342
50.888	2244
50.896	2149
50.904	2058
50.912	1973
50.92	1898
50.928	1830.99999999995
50.936	1774
50.944	1727
50.952	1690
50.96	1661
50.968	1640
50.976	1625
50.984	1617
50.992	1614
51	1613
51.008	1615
51.016	1618
51.024	1619
51.032	1620
51.04	1617
51.048	1611
51.056	1601.99999999999
51.064	1589
51.072	1574
51.08	1555
51.088	1534
51.096	1510.99999999998
51.104	1487
51.112	1463
51.12	1439.99999999998
51.128	1416
51.136	1392
51.144	1368
51.152	1344
51.16	1320.99999999998
51.168	1301
51.176	1285
51.184	1277
51.192	1282
51.2	1307
51.208	1362
51.216	1451
51.224	1578.00000000013
51.232	1738
51.24	1923
51.248	2123
51.256	2322
51.264	2507
51.272	2670
51.28	2802
51.288	2900.00000000007
51.296	2962
51.304	2989
51.312	2985
51.32	2952
51.328	2893
51.336	2815
51.344	2723
51.352	2621.99999999991
51.36	2516
51.368	2410
51.376	2307
51.384	2211
51.392	2122
51.4	2039
51.408	1965
51.416	1902.99999999995
51.424	1852
51.432	1809
51.44	1778
51.448	1755
51.456	1739
51.464	1729
51.472	1722
51.48	1717
51.488	1714
51.496	1710
51.504	1705
51.512	1699
51.52	1691
51.528	1679
51.536	1662
51.544	1641.99999999998
51.552	1622
51.56	1600
51.568	1577
51.576	1555
51.584	1532
51.592	1507
51.6	1481
51.608	1454.99999999998
51.616	1429
51.624	1403
51.632	1377
51.64	1350
51.648	1322
51.656	1297
51.664	1281
51.672	1277
51.68	1293
51.688	1340
51.696	1422
51.704	1541
51.712	1695
51.72	1875
51.728	2069
51.736	2265.00000000017
51.744	2451
51.752	2616
51.76	2751
51.768	2850
51.776	2911
51.784	2939
51.792	2935
51.8	2899.99999999996
51.808	2838
51.816	2757
51.824	2663
51.832	2558
51.84	2447
51.848	2336
51.856	2228
51.864	2125.99999999991
51.872	2030
51.88	1944
51.888	1869
51.896	1804
51.904	1750
51.912	1708
51.92	1675
51.928	1650.99999999998
51.936	1633
51.944	1619
51.952	1609
51.96	1600
51.968	1589
51.976	1579
51.984	1569
51.992	1558.99999999999
52	1548
52.008	1534
52.016	1518
52.024	1500
52.032	1479.99999999998
52.04	1457
52.048	1434
52.056	1409.99999999998
52.064	1385
52.072	1360
52.08	1333
52.088	1307
52.096	1277.99999999997
52.104	1247
52.112	1220
52.12	1193.99999999998
52.128	1168
52.136	1143
52.144	1122
52.152	1107
52.16	1106
52.168	1126
52.176	1175
52.184	1258.00000000009
52.192	1376
52.2	1527
52.208	1704
52.216	1894
52.224	2085.00000000016
52.232	2265
52.24	2422
52.248	2550
52.256	2646
52.264	2707
52.272	2735
52.28	2732
52.288	2699.99999999996
52.296	2646
52.304	2574
52.312	2488
52.32	2395
52.328	2298
52.336	2198
52.344	2099
52.352	2002.99999999992
52.36	1911
52.368	1826
52.376	1751
52.384	1689
52.392	1637
52.4	1595
52.408	1565
52.416	1543.99999999998
52.424	1528
52.432	1517
52.44	1510
52.448	1503
52.456	1496
52.464	1489
52.472	1482
52.48	1472.99999999999
52.488	1465
52.496	1456
52.504	1444
52.512	1430
52.52	1415
52.528	1399
52.536	1381
52.544	1360.99999999998
52.552	1340
52.56	1318
52.568	1295
52.576	1274
52.584	1254
52.592	1234
52.6	1214
52.608	1193.99999999998
52.616	1173
52.624	1152
52.632	1133
52.64	1121
52.648	1122
52.656	1144
52.664	1194
52.672	1275.00000000008
52.68	1388
52.688	1530
52.696	1695
52.704	1873
52.712	2051
52.72	2217
52.728	2364
52.736	2486.00000000009
52.744	2578
52.752	2637
52.76	2663
52.768	2658
52.776	2626
52.784	2572
52.792	2502
52.8	2419.99999999992
52.808	2329
52.816	2235
52.824	2141
52.832	2049
52.84	1961
52.848	1877
52.856	1800
52.864	1730.99999999994
52.872	1670
52.88	1619
52.888	1580
52.896	1550
52.904	1529
52.912	1514
52.92	1503
52.928	1497
52.936	1493
52.944	1491
52.952	1490
52.96	1489
52.968	1488
52.976	1485
52.984	1479
52.992	1469.99999999999
53	1458
53.008	1442
53.016	1425
53.024	1409
53.032	1391.99999999998
53.04	1372
53.048	1350
53.056	1326.99999999998
53.064	1305
53.072	1284
53.08	1263
53.088	1243
53.096	1223.99999999998
53.104	1205
53.112	1187
53.12	1174
53.128	1173
53.136	1194
53.144	1242
53.152	1320
53.16	1431.00000000011
53.168	1574
53.176	1740
53.184	1922.00000000016
53.192	2109
53.2	2290
53.208	2454
53.216	2594
53.224	2704.00000000008
53.232	2781
53.24	2825
53.248	2835
53.256	2813
53.264	2765
53.272	2698
53.28	2614
53.288	2519.99999999992
53.296	2423
53.304	2324
53.312	2227
53.32	2136
53.328	2049
53.336	1970
53.344	1898
53.352	1834.99999999995
53.36	1781
53.368	1737
53.376	1706
53.384	1683
53.392	1667
53.4	1657
53.408	1651
53.416	1647
53.424	1644
53.432	1640
53.44	1636
53.448	1633
53.456	1630
53.464	1625
53.472	1618
53.48	1605.99999999999
53.488	1590
53.496	1574
53.504	1558
53.512	1539
53.52	1519
53.528	1499
53.536	1480
53.544	1460.99999999998
53.552	1441
53.56	1421
53.568	1402
53.576	1382
53.584	1363
53.592	1348
53.6	1341
53.608	1349.00000000001
53.616	1378
53.624	1438
53.632	1534
53.64	1665
53.648	1829
53.656	2016
53.664	2214
53.672	2412.00000000017
53.68	2599
53.688	2767
53.696	2907
53.704	3013
53.712	3084
53.72	3122
53.728	3128
53.736	3102.99999999997
53.744	3052
53.752	2980
53.76	2893
53.768	2796
53.776	2693
53.784	2590
53.792	2487
53.8	2387.99999999992
53.808	2296
53.816	2211
53.824	2134
53.832	2064
53.84	2004
53.848	1954
53.856	1912
53.864	1879.99999999998
53.872	1856
53.88	1839
53.888	1828
53.896	1819
53.904	1811
53.912	1802
53.92	1791
53.928	1778.99999999999
53.936	1767
53.944	1753
53.952	1738
53.96	1722
53.968	1704
53.976	1684
53.984	1661
53.992	1635.99999999998
54	1608
54.008	1580
54.016	1556
54.024	1534
54.032	1510.99999999998
54.04	1488
54.048	1462
54.056	1434.99999999998
54.064	1411
54.072	1391
54.08	1379
54.088	1382
54.096	1408.00000000003
54.104	1465
54.112	1558
54.12	1687.00000000013
54.128	1851
54.136	2039
54.144	2218
54.152	2387
54.16	2560.00000000015
54.168	2719
54.176	2854
54.184	2956.00000000007
54.192	3024
54.2	3058
54.208	3060
54.216	3030
54.224	2972.99999999994
54.232	2897
54.24	2804
54.248	2697.9999999999
54.256	2585
54.264	2471
54.272	2359
54.28	2251
54.288	2149.99999999991
54.296	2057
54.304	1975
54.312	1903
54.32	1841
54.328	1789
54.336	1746
54.344	1711
54.352	1682.99999999998
54.36	1661
54.368	1644
54.376	1630
54.384	1619
54.392	1609
54.4	1598
54.408	1585
54.416	1569.99999999999
54.424	1551
54.432	1530
54.44	1507
54.448	1483
54.456	1457
54.464	1430
54.472	1401
54.48	1372.99999999998
54.488	1347
54.496	1320
54.504	1292
54.512	1268
54.52	1246
54.528	1223
54.536	1200
54.544	1176.99999999998
54.552	1156
54.56	1138
54.568	1129
54.576	1137
54.584	1168
54.592	1226
54.6	1315
54.608	1436.00000000012
54.616	1586
54.624	1758
54.632	1941
54.64	2126
54.648	2301
54.656	2457
54.664	2586
54.672	2684.00000000007
54.68	2750
54.688	2783
54.696	2787
54.704	2763
54.712	2715
54.72	2648
54.728	2565
54.736	2473.99999999992
54.744	2377
54.752	2276
54.76	2175
54.768	2079
54.776	1988
54.784	1902
54.792	1824
54.8	1756.99999999995
54.808	1702
54.816	1657
54.824	1621
54.832	1593
54.84	1572
54.848	1556
54.856	1543
54.864	1532.99999999999
54.872	1526
54.88	1520
54.888	1514
54.896	1506
54.904	1497
54.912	1487
54.92	1475
54.928	1459.99999999998
54.936	1440
54.944	1418
54.952	1394
54.96	1370
54.968	1347
54.976	1325
54.984	1304
54.992	1282.99999999998
55	1264
55.008	1244
55.016	1223
55.024	1204
55.032	1185.99999999999
55.04	1171
55.048	1162
55.056	1162
55.064	1176
55.072	1209
55.08	1267
55.088	1351
55.096	1462.00000000011
55.104	1597
55.112	1750
55.12	1911.00000000014
55.128	2073
55.136	2227
55.144	2364
55.152	2478
55.16	2565.00000000006
55.168	2621
55.176	2647
55.184	2645
55.192	2616
55.2	2564
55.208	2494
55.216	2411
55.224	2321.99999999992
55.232	2229
55.24	2135
55.248	2042.99999999992
55.256	1955
55.264	1873
55.272	1798
55.28	1729
55.288	1668.99999999995
55.296	1618
55.304	1577
55.312	1547
55.32	1525
55.328	1509
55.336	1499
55.344	1493
55.352	1489
55.36	1487
55.368	1485
55.376	1481
55.384	1476
55.392	1470
55.4	1462
55.408	1453
55.416	1442.99999999999
55.424	1430
55.432	1414
55.44	1396
55.448	1376
55.456	1355
55.464	1336
55.472	1317
55.48	1298.99999999998
55.488	1281
55.496	1263
55.504	1245
55.512	1226
55.52	1208
55.528	1194
55.536	1188
55.544	1196.00000000001
55.552	1225
55.56	1281
55.568	1366
55.576	1480
55.584	1622
55.592	1785
55.6	1958
55.608	2132.00000000015
55.616	2298
55.624	2447
55.632	2574
55.64	2672
55.648	2738
55.656	2772
55.664	2776
55.672	2751.99999999997
55.68	2705
55.688	2639
55.696	2557
55.704	2464
55.712	2365
55.72	2266
55.728	2167
55.736	2072.99999999992
55.744	1985
55.752	1904
55.76	1832
55.768	1771
55.776	1721
55.784	1682
55.792	1653
55.8	1633.99999999999
55.808	1622
55.816	1615
55.824	1612
55.832	1611
55.84	1612
55.848	1612
55.856	1611
55.864	1609
55.872	1604
55.88	1595
55.888	1584
55.896	1570
55.904	1556
55.912	1541
55.92	1524
55.928	1505.99999999998
55.936	1489
55.944	1472
55.952	1455
55.96	1440
55.968	1423
55.976	1407
55.984	1392
55.992	1376.99999999999
56	1364
56.008	1355
56.016	1359
56.024	1383
56.032	1432.00000000005
56.04	1510
56.048	1621
56.056	1765.00000000014
56.064	1935
56.072	2120
56.08	2311
56.088	2499
56.096	2673.00000000014
56.104	2824
56.112	2946
56.12	3038.00000000006
56.128	3096
56.136	3119
56.144	3111
56.152	3075
56.16	3014.99999999994
56.168	2937
56.176	2846
56.184	2744.9999999999
56.192	2613
56.2	2468
56.208	2348
56.216	2244
56.224	2151.99999999992
56.232	2073
56.24	2005
56.248	1945.99999999994
56.256	1877
56.264	1842
56.272	1815
56.28	1786
56.288	1773.99999999999
56.296	1765
56.304	1758
56.312	1751.99999999999
56.32	1745
56.328	1737
56.336	1728
56.344	1716
56.352	1702.99999999999
56.36	1688
56.368	1669
56.376	1637
56.384	1614
56.392	1591
56.4	1550
56.408	1528
56.416	1505.99999999997
56.424	1459
56.432	1435
56.44	1412
56.448	1382
56.456	1372
56.464	1379
56.472	1408
56.48	1464.00000000006
56.488	1553
56.496	1675
56.504	1827
56.512	2001
56.52	2186
56.528	2372
56.536	2551
56.544	2713.00000000013
56.552	2847
56.56	2951
56.568	3022
56.576	3059
56.584	3065
56.592	3040
56.6	2988
56.608	2914.99999999993
56.616	2827
56.624	2727
56.632	2620
56.64	2511
56.648	2404
56.656	2300
56.664	2201
56.672	2109.99999999992
56.68	2027
56.688	1954
56.696	1891
56.704	1839
56.712	1796
56.72	1762
56.728	1738
56.736	1719.99999999999
56.744	1706
56.752	1696
56.76	1687
56.768	1677
56.776	1666
56.784	1653
56.792	1637
56.8	1615.99999999998
56.808	1594
56.816	1572
56.824	1548
56.832	1523
56.84	1496
56.848	1468
56.856	1442
56.864	1415.99999999998
56.872	1389
56.88	1364
56.888	1340
56.896	1317
56.904	1296
56.912	1275
56.92	1256
56.928	1239.99999999999
56.936	1231
56.944	1233
56.952	1252
56.96	1294
56.968	1365
56.976	1467
56.984	1598
56.992	1751.00000000014
57	1920
57.008	2095
57.016	2266
57.024	2423
57.032	2558.00000000011
57.04	2663
57.048	2737
57.056	2780.00000000002
57.064	2791
57.072	2773
57.08	2729
57.088	2665
57.096	2584.99999999992
57.104	2493
57.112	2395
57.12	2292.99999999991
57.128	2191
57.136	2093
57.144	2000
57.152	1914
57.16	1836.99999999994
57.168	1771
57.176	1716
57.184	1669.99999999996
57.192	1633
57.2	1606
57.208	1588
57.216	1577
57.224	1571
57.232	1568
57.24	1565
57.248	1562
57.256	1558
57.264	1552
57.272	1543
57.28	1533
57.288	1519.99999999999
57.296	1504
57.304	1486
57.312	1464.99999999998
57.32	1445
57.328	1425
57.336	1405
57.344	1386
57.352	1365.99999999998
57.36	1345
57.368	1325
57.376	1306
57.384	1287
57.392	1269
57.4	1251
57.408	1236
57.416	1223.99999999999
57.424	1220
57.432	1231
57.44	1260
57.448	1311
57.456	1388
57.464	1487
57.472	1608
57.48	1747.00000000013
57.488	1897
57.496	2047
57.504	2189
57.512	2316
57.52	2421
57.528	2500
57.536	2549
57.544	2568
57.552	2558
57.56	2524
57.568	2469
57.576	2398
57.584	2315
57.592	2226
57.6	2132
57.608	2038.99999999992
57.616	1952
57.624	1869
57.632	1792
57.64	1721
57.648	1659
57.656	1608
57.664	1568
57.672	1536.99999999998
57.68	1515
57.688	1501
57.696	1493
57.704	1488
57.712	1484
57.72	1482
57.728	1480
57.736	1476
57.744	1470
57.752	1463
57.76	1456
57.768	1447
57.776	1438
57.784	1428
57.792	1417
57.8	1403.99999999999
57.808	1389
57.816	1374
57.824	1356
57.832	1337
57.84	1320
57.848	1303
57.856	1287
57.864	1270.99999999999
57.872	1255
57.88	1241
57.888	1228
57.896	1221
57.904	1227
57.912	1249
57.92	1293
57.928	1361.00000000007
57.936	1453
57.944	1568
57.952	1703
57.96	1853
57.968	2009
57.976	2163
57.984	2306
57.992	2430.0000000001
58	2529
58.008	2599
58.016	2639
58.024	2649
58.032	2628.99999999998
58.04	2585
58.048	2522
58.056	2442.99999999993
58.064	2355
58.072	2262
58.08	2166
58.088	2071
58.096	1981.99999999992
58.104	1899
58.112	1824
58.12	1755.99999999994
58.128	1698
58.136	1651
58.144	1616
58.152	1591
58.16	1574.99999999999
58.168	1566
58.176	1561
58.184	1560
58.192	1560
58.2	1561
58.208	1534
58.216	1490
58.224	1465.99999999998
58.232	1452
58.24	1441
58.248	1430.99999999999
58.256	1421
58.264	1408
58.272	1390
58.28	1371
58.288	1351.99999999998
58.296	1332
58.304	1313
58.312	1293.99999999998
58.32	1276
58.328	1260
58.336	1243
58.344	1227
58.352	1211.99999999999
58.36	1199
58.368	1195
58.376	1206
58.384	1236
58.392	1291
58.4	1376
58.408	1490
58.416	1631.00000000013
58.424	1794
58.432	1971
58.44	2153
58.448	2329
58.456	2490
58.464	2628
58.472	2737
58.48	2813.00000000005
58.488	2854
58.496	2862
58.504	2841
58.512	2795
58.52	2727
58.528	2642
58.536	2545
58.544	2441.99999999991
58.552	2337
58.56	2234
58.568	2134
58.576	2041
58.584	1958
58.592	1885
58.6	1824
58.608	1773.99999999996
58.616	1736
58.624	1709
58.632	1691
58.64	1679
58.648	1672
58.656	1668
58.664	1666
58.672	1664
58.68	1661
58.688	1657
58.696	1649
58.704	1638
58.712	1624
58.72	1608
58.728	1591
58.736	1573.99999999998
58.744	1556
58.752	1537
58.76	1517
58.768	1495
58.776	1473
58.784	1450
58.792	1425
58.8	1399.99999999998
58.808	1374
58.816	1350
58.824	1330
58.832	1317
58.84	1314
58.848	1325
58.856	1359
58.864	1420.00000000007
58.872	1512
58.88	1636
58.888	1787
58.896	1959
58.904	2144
58.912	2331
58.92	2508
58.928	2664.00000000013
58.936	2795
58.944	2895
58.952	2958
58.96	2987
58.968	2985
58.976	2952
58.984	2892
58.992	2811.99999999992
59	2718
59.008	2612
59.016	2498
59.024	2383
59.032	2272.99999999991
59.04	2170
59.048	2075
59.056	1991.99999999993
59.064	1920
59.072	1860
59.08	1811
59.088	1773
59.096	1744.99999999998
59.104	1724
59.112	1708
59.12	1696.99999999999
59.128	1689
59.136	1680
59.144	1670
59.152	1660
59.16	1646.99999999999
59.168	1632
59.176	1614
59.184	1592.99999999998
59.192	1570
59.2	1543
59.208	1516
59.216	1489
59.224	1461.99999999998
59.232	1434
59.24	1407
59.248	1379.99999999998
59.256	1351
59.264	1323
59.272	1296
59.28	1269
59.288	1243.99999999998
59.296	1220
59.304	1200
59.312	1188
59.32	1187
59.328	1205
59.336	1249
59.344	1323
59.352	1429.00000000011
59.36	1565
59.368	1725
59.376	1901.00000000016
59.384	2081
59.392	2255
59.4	2414
59.408	2547
59.416	2650.00000000007
59.424	2721
59.432	2759
59.44	2763
59.448	2736
59.456	2681
59.464	2603
59.472	2505
59.48	2393.9999999999
59.488	2276
59.496	2158
59.504	2045
59.512	1939
59.52	1843
59.528	1758
59.536	1685
59.544	1626.99999999995
59.552	1580
59.56	1542
59.568	1513
59.576	1492
59.584	1476
59.592	1466
59.6	1461
59.608	1458
59.616	1455
59.624	1453
59.632	1450
59.64	1445
59.648	1438
59.656	1428
59.664	1416
59.672	1401.99999999999
59.68	1386
59.688	1368
59.696	1348
59.704	1326
59.712	1304
59.72	1282
59.728	1259
59.736	1234.99999999998
59.744	1211
59.752	1189
59.76	1170
59.768	1153
59.776	1139
59.784	1130
59.792	1128
59.8	1140.00000000002
59.808	1169
59.816	1218
59.824	1289
59.832	1384
59.84	1501
59.848	1637
59.856	1785
59.864	1936.00000000013
59.872	2082
59.88	2216
59.888	2327
59.896	2409
59.904	2460
59.912	2478
59.92	2464
59.928	2422.99999999996
59.936	2360
59.944	2278
59.952	2183
59.96	2081
59.968	1977
59.976	1875
59.984	1778
59.992	1688.99999999993
60	1611
60.008	1544
60.016	1489
60.024	1445
60.032	1410.99999999997
60.04	1386
60.048	1368
60.056	1356.99999999999
60.064	1352
60.072	1351
60.08	1353
60.088	1355
60.096	1356
60.104	1355
60.112	1352
60.12	1345.99999999999
60.128	1338
60.136	1328
60.144	1318
60.152	1307
60.16	1294.99999999999
60.168	1281
60.176	1266
60.184	1249.99999999998
60.192	1232
60.2	1213
60.208	1194
60.216	1175
60.224	1156.99999999998
60.232	1140
60.24	1125
60.248	1115
60.256	1123
60.264	1147
60.272	1176
60.28	1216
60.288	1275.00000000006
60.296	1357
60.304	1460
60.312	1581.00000000011
60.32	1718
60.328	1863
60.336	2009
60.344	2146
60.352	2266.0000000001
60.36	2364
60.368	2435
60.376	2477.00000000001
60.384	2487
60.392	2466
60.4	2418
60.408	2349
60.416	2265.99999999992
60.424	2171
60.432	2070
60.44	1967
60.448	1868
60.456	1776
60.464	1693
60.472	1621
60.48	1560.99999999995
60.488	1512
60.496	1473
60.504	1446
60.512	1428
60.52	1418
60.528	1415
60.536	1418
60.544	1423
60.552	1429
60.56	1433
60.568	1435
60.576	1435
60.584	1433
60.592	1429
60.6	1422
60.608	1409.99999999999
60.616	1395
60.624	1379
60.632	1362
60.64	1344
60.648	1325
60.656	1306
60.664	1286
60.672	1264.99999999998
60.68	1245
60.688	1228
60.696	1213
60.704	1199
60.712	1187
60.72	1183
60.728	1190
60.736	1211.00000000002
60.744	1253
60.752	1319
60.76	1412
60.768	1532
60.776	1674
60.784	1833
60.792	2002
60.8	2168.00000000014
60.808	2323
60.816	2460
60.824	2571
60.832	2651
60.84	2698
60.848	2713
60.856	2697
60.864	2651.99999999995
60.872	2583
60.88	2497
60.888	2398
60.896	2292
60.904	2184
60.912	2079
60.92	1983
60.928	1895.99999999993
60.936	1819
60.944	1754
60.952	1701
60.96	1660
60.968	1629
60.976	1609
60.984	1596
60.992	1589
61	1588
61.008	1590
61.016	1594
61.024	1597
61.032	1599
61.04	1600
61.048	1598
61.056	1592.99999999999
61.064	1585
61.072	1572
61.08	1556
61.088	1539
61.096	1520.99999999998
61.104	1503
61.112	1484
61.12	1462.99999999998
61.128	1443
61.136	1422
61.144	1400
61.152	1379
61.16	1359.99999999998
61.168	1342
61.176	1328
61.184	1323
61.192	1331
61.2	1357
61.208	1408
61.216	1488
61.224	1598.00000000011
61.232	1736
61.24	1898
61.248	2075.00000000016
61.256	2256
61.264	2429
61.272	2586
61.28	2718
61.288	2820.00000000007
61.296	2888
61.304	2922
61.312	2923
61.32	2893
61.328	2835
61.336	2754
61.344	2656
61.352	2546.9999999999
61.36	2432
61.368	2315
61.376	2200.9999999999
61.384	2095
61.392	2001
61.4	1919
61.408	1849
61.416	1791.99999999995
61.424	1746
61.432	1711
61.44	1688
61.448	1673
61.456	1665
61.464	1661
61.472	1659
61.48	1657
61.488	1653
61.496	1647
61.504	1638
61.512	1626
61.52	1614
61.528	1601
61.536	1587
61.544	1569.99999999998
61.552	1550
61.56	1530
61.568	1510
61.576	1489
61.584	1467
61.592	1444
61.6	1419
61.608	1393.99999999998
61.616	1370
61.624	1347
61.632	1326
61.64	1309
61.648	1300
61.656	1302
61.664	1323
61.672	1369.00000000005
61.68	1444
61.688	1550
61.696	1683
61.704	1839
61.712	2009
61.72	2183
61.728	2352
61.736	2505.00000000013
61.744	2635
61.752	2735
61.76	2800
61.768	2827
61.776	2821
61.784	2782
61.792	2713
61.8	2622.99999999991
61.808	2517
61.816	2401
61.824	2281
61.832	2161
61.84	2045
61.848	1938
61.856	1841
61.864	1755.99999999993
61.872	1682
61.88	1621
61.888	1574
61.896	1538
61.904	1513
61.912	1498
61.92	1489
61.928	1485
61.936	1483
61.944	1481
61.952	1478
61.96	1472
61.968	1464
61.976	1455
61.984	1445
61.992	1432.99999999999
62	1419
62.008	1402
62.016	1382
62.024	1362
62.032	1339.99999999998
62.04	1316
62.048	1292
62.056	1266.99999999998
62.064	1242
62.072	1218
62.08	1195
62.088	1173
62.096	1153.99999999999
62.104	1139
62.112	1131
62.12	1133
62.128	1151
62.136	1189
62.144	1249
62.152	1335
62.16	1447.00000000011
62.168	1581
62.176	1732
62.184	1893.00000000014
62.192	2055
62.2	2206
62.208	2337
62.216	2441
62.224	2512.00000000004
62.232	2547
62.24	2548
62.248	2515.99999999996
62.256	2454
62.264	2369
62.272	2268
62.28	2155
62.288	2038.9999999999
62.296	1924
62.304	1817
62.312	1722.99999999992
62.32	1637
62.328	1561
62.336	1498
62.344	1447
62.352	1406.99999999997
62.36	1377
62.368	1357
62.376	1344.99999999999
62.384	1340
62.392	1339
62.4	1342
62.408	1348
62.416	1356.00000000001
62.424	1363
62.432	1368
62.44	1369
62.448	1367
62.456	1360
62.464	1348
62.472	1335
62.48	1321.99999999999
62.488	1306
62.496	1288
62.504	1269
62.512	1249
62.52	1227
62.528	1205
62.536	1184
62.544	1164.99999999999
62.552	1150
62.56	1138
62.568	1131
62.576	1130
62.584	1138
62.592	1160
62.6	1200
62.608	1264.00000000007
62.616	1352
62.624	1462
62.632	1593
62.64	1740
62.648	1894
62.656	2047
62.664	2190
62.672	2313.0000000001
62.68	2409
62.688	2471
62.696	2499
62.704	2495
62.712	2459
62.72	2394
62.728	2306
62.736	2202.9999999999
62.744	2091
62.752	1974
62.76	1860
62.768	1754
62.776	1656
62.784	1571
62.792	1502
62.8	1445.99999999996
62.808	1403
62.816	1373
62.824	1354
62.832	1343
62.84	1340
62.848	1343
62.856	1351
62.864	1361.00000000001
62.872	1370
62.88	1376
62.888	1379
62.896	1380
62.904	1379
62.912	1376
62.92	1368
62.928	1355.99999999999
62.936	1341
62.944	1324
62.952	1304
62.96	1283
62.968	1262
62.976	1239
62.984	1216
62.992	1191.99999999998
63	1169
63.008	1150
63.016	1135
63.024	1127
63.032	1127
63.04	1137
63.048	1163
63.056	1210.00000000005
63.064	1281
63.072	1378
63.08	1501
63.088	1649
63.096	1812.00000000015
63.104	1982
63.112	2150
63.12	2306.00000000013
63.128	2442
63.136	2549
63.144	2621
63.152	2657
63.16	2658
63.168	2623
63.176	2557
63.184	2467.99999999991
63.192	2361
63.2	2243
63.208	2120
63.216	1997
63.224	1881.9999999999
63.232	1777
63.24	1685
63.248	1605.99999999994
63.256	1541
63.264	1491
63.272	1454
63.28	1429
63.288	1413.99999999999
63.296	1406
63.304	1405
63.312	1409
63.32	1415
63.328	1422
63.336	1428
63.344	1432
63.352	1434
63.36	1433
63.368	1429
63.376	1421.99999999999
63.384	1411
63.392	1399
63.4	1386
63.408	1369
63.416	1350.99999999998
63.424	1333
63.432	1314
63.44	1293.99999999998
63.448	1275
63.456	1258
63.464	1241
63.472	1225
63.48	1213
63.488	1211
63.496	1222
63.504	1251
63.512	1306
63.52	1389
63.528	1505
63.536	1651
63.544	1819.00000000016
63.552	2001
63.56	2189
63.568	2371
63.576	2535
63.584	2671
63.592	2774
63.6	2840
63.608	2867
63.616	2858
63.624	2815
63.632	2745
63.64	2652
63.648	2541
63.656	2420
63.664	2294
63.672	2168.99999999989
63.68	2051
63.688	1943
63.696	1848
63.704	1767
63.712	1702
63.72	1652
63.728	1616
63.736	1590.99999999998
63.744	1575
63.752	1566
63.76	1561
63.768	1560
63.776	1561
63.784	1563
63.792	1564
63.8	1564
63.808	1562
63.816	1557
63.824	1549
63.832	1536
63.84	1521
63.848	1506
63.856	1489
63.864	1470.99999999998
63.872	1450
63.88	1427
63.888	1404
63.896	1379
63.904	1354
63.912	1329
63.92	1305
63.928	1282.99999999998
63.936	1267
63.944	1261
63.952	1270
63.96	1302
63.968	1365
63.976	1462
63.984	1593
63.992	1756.00000000015
64	1942
64.008	2141
64.016	2340
64.024	2525
64.032	2687
64.04	2818
64.048	2913
64.056	2971
64.064	2991
64.072	2974
64.08	2920
64.088	2834.99999999983
64.096	2727
64.104	2601
64.112	2465
64.12	2326
64.128	2191
64.136	2066
64.144	1951
64.152	1851
64.16	1766
64.168	1697
64.176	1645
64.184	1606
64.192	1575.99999999996
64.2	1555
64.208	1543
64.216	1535.99999999999
64.224	1531
64.232	1528
64.24	1524
64.248	1518
64.256	1511
64.264	1503
64.272	1493
64.28	1480
64.288	1464
64.296	1446
64.304	1425
64.312	1403
64.32	1377.99999999995
64.328	1349
64.336	1319
64.344	1288.99999999994
64.352	1252
64.36	1211
64.368	1176
64.376	1143
64.384	1116
64.392	1096
64.4	1085
64.408	1087
64.416	1109
64.424	1157
64.432	1234
64.44	1343
64.448	1486.00000000028
64.456	1655
64.464	1839
64.472	2028.00000000033
64.48	2210
64.488	2372
64.496	2506
64.504	2605
64.512	2664
64.52	2681
64.528	2660
64.536	2603
64.544	2517
64.552	2408
64.56	2281
64.568	2145
64.576	2006.99999999976
64.584	1873
64.592	1748
64.6	1636
64.608	1538
64.616	1455
64.624	1390
64.632	1338
64.64	1298
64.648	1271
64.656	1255
64.664	1246
64.672	1241
64.68	1240
64.688	1240
64.696	1240
64.704	1240
64.712	1240
64.72	1239
64.728	1237
64.736	1233
64.744	1226
64.752	1216
64.76	1205
64.768	1192
64.776	1174
64.784	1152
64.792	1128
64.8	1103
64.808	1078
64.816	1052
64.824	1025
64.832	999.999999999959
64.84	979
64.848	964
64.856	956
64.864	959
64.872	977
64.88	1016
64.888	1080
64.896	1173
64.904	1295
64.912	1441
64.92	1607
64.928	1783
64.936	1957
64.944	2119
64.952	2259
64.96	2367.00000000015
64.968	2436
64.976	2465
64.984	2456
64.992	2409
65	2330
65.008	2226
65.016	2105
65.024	1975
65.032	1843
65.04	1715
65.048	1597
65.056	1493
65.064	1404.99999999986
65.072	1331
65.08	1272
65.088	1228.99999999994
65.096	1201
65.104	1184
65.112	1176
65.12	1176
65.128	1180
65.136	1187
65.144	1196
65.152	1204
65.16	1211
65.168	1217
65.176	1221
65.184	1223
65.192	1222
65.2	1217
65.208	1209
65.216	1196.99999999998
65.224	1181
65.232	1160
65.24	1135
65.248	1110
65.256	1085
65.264	1062
65.272	1040
65.28	1019
65.288	1000
65.296	984
65.304	974
65.312	971
65.32	980.000000000024
65.328	1005
65.336	1054
65.344	1130.00000000016
65.352	1237
65.36	1376
65.368	1538
65.376	1716
65.384	1901
65.392	2081
65.4	2243
65.408	2377
65.416	2475
65.424	2533
65.432	2549
65.44	2524
65.448	2462.99999999987
65.456	2373
65.464	2259
65.472	2128.99999999976
65.48	1992
65.488	1855
65.496	1724
65.504	1604
65.512	1499
65.52	1411
65.528	1339
65.536	1282
65.544	1241
65.552	1216
65.56	1202
65.568	1197
65.576	1200.00000000001
65.584	1207
65.592	1216
65.6	1224
65.608	1230
65.616	1234
65.624	1236
65.632	1235
65.64	1232
65.648	1225
65.656	1216
65.664	1205
65.672	1192
65.68	1174
65.688	1152
65.696	1128
65.704	1103.99999999996
65.712	1080
65.72	1055
65.728	1030
65.736	1005
65.744	984
65.752	968
65.76	960
65.768	963
65.776	983
65.784	1026
65.792	1098
65.8	1205
65.808	1349
65.816	1524
65.824	1720
65.832	1927.00000000037
65.84	2132
65.848	2320
65.856	2480
65.864	2603
65.872	2683
65.88	2719
65.888	2712
65.896	2664
65.904	2582
65.912	2473
65.92	2344
65.928	2202
65.936	2057
65.944	1916
65.952	1784
65.96	1663.9999999998
65.968	1559
65.976	1472
65.984	1402
65.992	1351
66	1315
66.008	1292
66.016	1282
66.024	1281
66.032	1286
66.04	1294
66.048	1304
66.056	1315
66.064	1326.00000000002
66.072	1334
66.08	1340
66.088	1343
66.096	1343
66.104	1339
66.112	1331
66.12	1319
66.128	1301
66.136	1278
66.144	1253
66.152	1228
66.16	1201
66.168	1173
66.176	1145
66.184	1119
66.192	1093.99999999996
66.2	1071
66.208	1055
66.216	1050
66.224	1062
66.232	1100
66.24	1172
66.248	1283
66.256	1433
66.264	1617
66.272	1826
66.28	2045
66.288	2262
66.296	2461
66.304	2631
66.312	2763
66.32	2852.0000000001
66.328	2896
66.336	2897
66.344	2857.99999999991
66.352	2781
66.36	2675
66.368	2547
66.376	2404
66.384	2253
66.392	2102
66.4	1983
66.408	1890
66.416	1794
66.424	1708
66.432	1635
66.44	1576
66.448	1531.99999999994
66.456	1503
66.464	1485
66.472	1475.99999999999
66.48	1474
66.488	1476
66.496	1478
66.504	1480
66.512	1483
66.52	1486
66.528	1487
66.536	1486
66.544	1482
66.552	1476
66.56	1466
66.568	1452
66.576	1433.99999999996
66.584	1412
66.592	1375
66.6	1347
66.608	1318
66.616	1273
66.624	1243
66.632	1212
66.64	1181
66.648	1154
66.656	1133
66.664	1125
66.672	1137
66.68	1177
66.688	1252
66.696	1365
66.704	1517.0000000003
66.712	1701
66.72	1904
66.728	2112
66.736	2313
66.744	2566
66.752	2693
66.76	2777
66.768	2816
66.776	2775
66.784	2698
66.792	2462
66.8	2318
66.808	2166
66.816	1940
66.824	1800
66.832	1672.99999999979
66.84	1562
66.848	1469
66.856	1394
66.864	1334
66.872	1290
66.88	1261
66.888	1245
66.896	1238
66.904	1236
66.912	1236
66.92	1236
66.928	1236
66.936	1236
66.944	1235
66.952	1233
66.96	1228.99999999999
66.968	1222
66.976	1212
66.984	1199
66.992	1183
67	1164
67.008	1142
67.016	1118
67.024	1093
67.032	1067
67.04	1040
67.048	1013
67.056	986
67.064	958.999999999955
67.072	935
67.08	914
67.088	897.999999999985
67.096	892
67.104	903
67.112	937
67.12	999
67.128	1094
67.136	1223
67.144	1385
67.152	1569
67.16	1764
67.168	1956
67.176	2132
67.184	2282
67.192	2398.00000000016
67.2	2473
67.208	2504
67.216	2491.99999999997
67.224	2442
67.232	2358
67.24	2249
67.248	2123
67.256	1986
67.264	1847
67.272	1712
67.28	1585
67.288	1472
67.296	1374
67.304	1293
67.312	1229
67.32	1180.99999999993
67.328	1148
67.336	1127
67.344	1116.99999999999
67.352	1115
67.36	1118
67.368	1124
67.376	1132
67.384	1140
67.392	1147
67.4	1153
67.408	1157
67.416	1158
67.424	1155
67.432	1149
67.44	1139
67.448	1125.99999999997
67.456	1110
67.464	1092
67.472	1071.99999999996
67.48	1049
67.488	1026
67.496	1004
67.504	983
67.512	963
67.52	943
67.528	923
67.536	905
67.544	893
67.552	891
67.56	904
67.568	938
67.576	1000.00000000013
67.584	1093
67.592	1220
67.6	1376
67.608	1552
67.616	1739
67.624	1925
67.632	2096
67.64	2240
67.648	2349
67.656	2418
67.664	2444
67.672	2429
67.68	2377
67.688	2292
67.696	2181
67.704	2054.99999999977
67.712	1921
67.72	1787
67.728	1660
67.736	1541
67.744	1434
67.752	1344
67.76	1272
67.768	1215
67.776	1174
67.784	1147
67.792	1132
67.8	1125
67.808	1125
67.816	1129
67.824	1136
67.832	1144.00000000001
67.84	1152
67.848	1159
67.856	1165
67.864	1169
67.872	1170
67.88	1167
67.888	1160
67.896	1147
67.904	1131
67.912	1112
67.92	1090
67.928	1067
67.936	1043
67.944	1020
67.952	998
67.96	975.999999999962
67.968	955
67.976	935
67.984	916
67.992	900
68	892
68.008	899
68.016	929
68.024	987
68.032	1078
68.04	1204
68.048	1363
68.056	1549
68.064	1750.00000000036
68.072	1952
68.08	2143
68.088	2311.00000000026
68.096	2444
68.104	2534
68.112	2580
68.12	2584
68.128	2547
68.136	2474
68.144	2372
68.152	2249
68.16	2113
68.168	1971
68.176	1831
68.184	1698
68.192	1576.9999999998
68.2	1473
68.208	1385
68.216	1314.99999999989
68.224	1263
68.232	1226
68.24	1202
68.248	1190
68.256	1187
68.264	1192
68.272	1201
68.28	1213
68.288	1225
68.296	1234
68.304	1239
68.312	1242
68.32	1242
68.328	1240
68.336	1235
68.344	1225.99999999998
68.352	1213
68.36	1198
68.368	1180
68.376	1161
68.384	1142
68.392	1122
68.4	1102
68.408	1082
68.416	1113
68.424	1170
68.432	1190
68.44	1194
68.448	1194
68.456	1200
68.464	1221
68.472	1267.0000000001
68.48	1344
68.488	1456
68.496	1605
68.504	1786
68.512	1987
68.52	2195
68.528	2395
68.536	2575
68.544	2723
68.552	2831
68.56	2896
68.568	2918
68.576	2898.99999999995
68.584	2844
68.592	2759
68.6	2650.99999999979
68.608	2526
68.616	2391
68.624	2253
68.632	2117
68.64	1990
68.648	1876
68.656	1778
68.664	1697
68.672	1634
68.68	1587
68.688	1555
68.696	1536
68.704	1527
68.712	1526
68.72	1530
68.728	1537
68.736	1545
68.744	1552
68.752	1556
68.76	1558
68.768	1557
68.776	1554
68.784	1548
68.792	1539
68.8	1528
68.808	1515
68.816	1500
68.824	1480
68.832	1458.99999999996
68.84	1438
68.848	1415
68.856	1392
68.864	1368
68.872	1344
68.88	1320
68.888	1297
68.896	1277
68.904	1263
68.912	1262
68.92	1282
68.928	1332
68.936	1419
68.944	1549
68.952	1718
68.96	1917.00000000037
68.968	2135
68.976	2353
68.984	2554
68.992	2725
69	2859
69.008	2950
69.016	2997
69.024	3001
69.032	2965
69.04	2896
69.048	2799
69.056	2682
69.064	2550.99999999976
69.072	2414
69.08	2275
69.088	2140.99999999977
69.096	2016
69.104	1904
69.112	1807
69.12	1727
69.128	1663
69.136	1614
69.144	1579
69.152	1557
69.16	1544
69.168	1537
69.176	1535
69.184	1534
69.192	1532
69.2	1529
69.208	1525
69.216	1517.99999999999
69.224	1509
69.232	1499
69.24	1485
69.248	1468
69.256	1449
69.264	1429
69.272	1406
69.28	1381
69.288	1355
69.296	1327
69.304	1299
69.312	1270
69.32	1239.99999999995
69.328	1210
69.336	1181
69.344	1153.99999999995
69.352	1127
69.36	1106
69.368	1096
69.376	1106
69.384	1142
69.392	1210
69.4	1315
69.408	1458
69.416	1631
69.424	1824
69.432	2025
69.44	2218
69.448	2387.00000000027
69.456	2525
69.464	2623
69.472	2678.00000000004
69.48	2691
69.488	2667
69.496	2609
69.504	2521
69.512	2412
69.52	2289
69.528	2158
69.536	2023
69.544	1892
69.552	1769
69.56	1659
69.568	1563
69.576	1482.99999999988
69.584	1421
69.592	1375
69.6	1342.99999999996
69.608	1323
69.616	1312
69.624	1308
