Time	PPG1
0	2545
0.008	2434
0.016	2326
0.024	2226
0.032	2138
0.04	2063
0.048	2002
0.056	1955
0.064	1922
0.072	1898
0.08	1882
0.088	1872
0.096	1865
0.104	1861
0.112	1858
0.12	1854
0.128	1849
0.136	1843
0.144	1836
0.152	1827
0.16	1816
0.168	1802
0.176	1787
0.184	1771
0.192	1753
0.2	1733
0.208	1711
0.216	1688
0.224	1664
0.232	1640
0.24	1616
0.248	1591
0.256	1567
0.264	1544
0.272	1520
0.28	1498
0.288	1480
0.296	1469
0.304	1472
0.312	1494
0.32	1542
0.328	1619
0.336	1726
0.344	1861
0.352	2019
0.36	2189
0.368	2362
0.376	2527
0.384	2674
0.392	2792
0.4	2876
0.408	2924
0.416	2935
0.424	2912
0.432	2859
0.44	2782
0.448	2684
0.456	2573
0.464	2456
0.472	2337
0.48	2222
0.488	2112
0.496	2012
0.504	1925
0.512	1853
0.52	1796
0.528	1752
0.536	1720
0.544	1698
0.552	1683
0.56	1673
0.568	1665
0.576	1658
0.584	1650
0.592	1640
0.6	1628
0.608	1613
0.616	1596
0.624	1577
0.632	1558
0.64	1539
0.648	1521
0.656	1503
0.664	1485
0.672	1465
0.68	1444
0.688	1421
0.696	1397
0.704	1372
0.712	1346
0.72	1321
0.728	1299
0.736	1280
0.744	1262
0.752	1246
0.76	1235
0.768	1233
0.776	1243
0.784	1271
0.792	1322
0.8	1399
0.808	1503
0.816	1630
0.824	1776
0.832	1935
0.84	2096
0.848	2247
0.856	2381
0.864	2488
0.872	2562
0.88	2601
0.888	2604
0.896	2572
0.904	2511
0.912	2427
0.92	2326
0.928	2213
0.936	2095
0.944	1979
0.952	1870
0.96	1772
0.968	1688
0.976	1618
0.984	1563
0.992	1523
1	1495
1.008	1477
1.016	1467
1.024	1462
1.032	1460
1.04	1460
1.048	1460
1.056	1460
1.064	1459
1.072	1456
1.08	1449
1.088	1440
1.096	1429
1.104	1417
1.112	1404
1.12	1391
1.128	1378
1.136	1363
1.144	1347
1.152	1329
1.16	1310
1.168	1291
1.176	1273
1.184	1254
1.192	1235
1.2	1218
1.208	1202
1.216	1189
1.224	1181
1.232	1180
1.24	1190
1.248	1218
1.256	1269
1.264	1347
1.272	1451
1.28	1578
1.288	1724
1.296	1884
1.304	2048
1.312	2203
1.32	2341
1.328	2454
1.336	2534
1.344	2578
1.352	2584
1.36	2553
1.368	2492
1.376	2407
1.384	2305
1.392	2191
1.4	2072
1.408	1955
1.416	1846
1.424	1748
1.432	1665
1.44	1599
1.448	1549
1.456	1514
1.464	1491
1.472	1478
1.48	1472
1.488	1471
1.496	1474
1.504	1478
1.512	1482
1.52	1485
1.528	1486
1.536	1484
1.544	1479
1.552	1471
1.56	1461
1.568	1449
1.576	1435
1.584	1419
1.592	1402
1.6	1383
1.608	1362
1.616	1339
1.624	1316
1.632	1293
1.64	1272
1.648	1252
1.656	1233
1.664	1216
1.672	1202
1.68	1193
1.688	1192
1.696	1202
1.704	1229
1.712	1278
1.72	1352
1.728	1454
1.736	1583
1.744	1735
1.752	1904
1.76	2080
1.768	2252
1.776	2411
1.784	2546
1.792	2647
1.8	2712
1.808	2737
1.816	2724
1.824	2675
1.832	2596
1.84	2494
1.848	2378
1.856	2254
1.864	2128
1.872	2007
1.88	1898
1.888	1802
1.896	1721
1.904	1657
1.912	1609
1.92	1576
1.928	1555
1.936	1545
1.944	1542
1.952	1542
1.96	1544
1.968	1547
1.976	1550
1.984	1550
1.992	1548
2	1544
2.008	1539
2.016	1533
2.024	1524
2.032	1513
2.04	1501
2.048	1488
2.056	1473
2.064	1456
2.072	1438
2.08	1421
2.088	1403
2.096	1384
2.104	1366
2.112	1347
2.12	1329
2.128	1315
2.136	1305
2.144	1301
2.152	1305
2.16	1323
2.168	1362
2.176	1424
2.184	1514
2.192	1633
2.2	1777
2.208	1939
2.216	2110
2.224	2278
2.232	2433
2.24	2566
2.248	2669
2.256	2740
2.264	2774
2.272	2773
2.28	2741
2.288	2679
2.296	2592.99999999999
2.304	2489.99999999999
2.312	2377
2.32	2262
2.328	2148
2.336	2042
2.344	1948
2.352	1867
2.36	1801
2.368	1749
2.376	1710
2.384	1683
2.392	1667
2.4	1658
2.408	1653
2.416	1651
2.424	1650
2.432	1649
2.44	1648
2.448	1645
2.456	1642
2.464	1637
2.472	1630
2.48	1620
2.488	1609
2.496	1596
2.504	1580
2.512	1563
2.52	1547
2.528	1530
2.536	1510
2.544	1490
2.552	1469
2.56	1447
2.568	1425
2.576	1403
2.584	1380
2.592	1358
2.6	1340
2.608	1329
2.616	1331
2.624	1353
2.632	1402
2.64	1480
2.648	1589
2.656	1727
2.664	1888
2.672	2062
2.68	2239
2.688	2409
2.696	2559
2.704	2682
2.712	2772
2.72	2824
2.728	2838
2.736	2816
2.744	2760
2.752	2676.99999999999
2.76	2574.99999999999
2.768	2459.99999999999
2.776	2337.99999999999
2.784	2215.99999999999
2.792	2097.99999999999
2.8	1987.99999999999
2.808	1889.99999999999
2.816	1805
2.824	1736
2.832	1681
2.84	1639
2.848	1608
2.856	1586
2.864	1571
2.872	1560
2.88	1550
2.888	1542
2.896	1535
2.904	1527
2.912	1517
2.92	1504
2.928	1488
2.936	1470
2.944	1450
2.952	1430
2.96	1409
2.968	1387
2.976	1363
2.984	1338
2.992	1312
3	1285
3.008	1259
3.016	1234
3.024	1208
3.032	1182
3.04	1156
3.048	1131
3.056	1110
3.064	1094
3.072	1086
3.08	1089
3.088	1110
3.096	1153
3.104	1223
3.112	1323
3.12	1451
3.128	1601
3.136	1764
3.144	1929
3.152	2087
3.16	2227
3.168	2340
3.176	2420
3.184	2465
3.192	2474
3.2	2448
3.208	2392
3.216	2311
3.224	2211
3.232	2097
3.24	1975
3.248	1853
3.256	1736.99999999999
3.264	1631.99999999999
3.272	1540
3.28	1463
3.288	1402
3.296	1355
3.304	1323
3.312	1302
3.32	1289
3.328	1284
3.336	1282
3.344	1282
3.352	1283
3.36	1284
3.368	1283
3.376	1281
3.384	1278
3.392	1273
3.4	1266
3.408	1256
3.416	1244
3.424	1230
3.432	1214
3.44	1196
3.448	1176
3.456	1154
3.464	1131
3.472	1108
3.48	1084
3.488	1060
3.496	1037
3.504	1016
3.512	999
3.52	989
3.528	984
3.536	987
3.544	1003
3.552	1035
3.56	1088
3.568	1166
3.576	1269
3.584	1395
3.592	1540
3.6	1695
3.608	1853
3.616	2002
3.624	2131
3.632	2235
3.64	2306
3.648	2341
3.656	2341
3.664	2307
3.672	2244
3.68	2157
3.688	2053
3.696	1938
3.704	1821
3.712	1708
3.72	1601
3.728	1507
3.736	1427
3.744	1362
3.752	1313
3.76	1280
3.768	1258
3.776	1245
3.784	1240
3.792	1239
3.8	1241
3.808	1243
3.816	1245
3.824	1246
3.832	1244
3.84	1241
3.848	1237
3.856	1230
3.864	1221
3.872	1212
3.88	1200
3.888	1186
3.896	1170
3.904	1152
3.912	1132
3.92	1110
3.928	1088
3.936	1068
3.944	1048
3.952	1027
3.96	1008
3.968	991
3.976	978
3.984	968
3.992	965
4	1037
4.008	1154
4.016	1240
4.024	1324
4.032	1421
4.04	1536
4.048	1665
4.056	1804
4.064	1945
4.072	2080
4.08	2199
4.088	2297
4.096	2368
4.104	2408
4.112	2417
4.12	2398
4.128	2352
4.136	2284
4.144	2200
4.152	2105
4.16	2006
4.168	1908
4.176	1815
4.184	1732
4.192	1660
4.2	1601
4.208	1556
4.216	1523
4.224	1502
4.232	1489
4.24	1484
4.248	1483
4.256	1485
4.264	1488
4.272	1490
4.28	1491
4.288	1491
4.296	1488
4.304	1483
4.312	1477
4.32	1469
4.328	1461
4.336	1451
4.344	1440
4.352	1428
4.36	1415
4.368	1402
4.376	1386
4.384	1368
4.392	1350
4.4	1332
4.408	1314
4.416	1297
4.424	1281
4.432	1267
4.44	1257
4.448	1253
4.456	1259
4.464	1281
4.472	1323
4.48	1387
4.488	1475
4.496	1586
4.504	1715.00000000002
4.512	1858.00000000002
4.52	2005.00000000002
4.528	2148.00000000002
4.536	2277.00000000001
4.544	2384.00000000001
4.552	2463.00000000001
4.56	2512
4.568	2529
4.576	2516
4.584	2474.99999999999
4.592	2411.99999999999
4.6	2330.99999999999
4.608	2239.99999999999
4.616	2143
4.624	2047
4.632	1954
4.64	1866
4.648	1788
4.656	1722
4.664	1669
4.672	1631
4.68	1605
4.688	1589
4.696	1582
4.704	1580
4.712	1581
4.72	1586
4.728	1592
4.736	1597
4.744	1602
4.752	1605
4.76	1606
4.768	1603
4.776	1597
4.784	1588
4.792	1577
4.8	1565
4.808	1551
4.816	1537
4.824	1523
4.832	1508
4.84	1491
4.848	1475
4.856	1459
4.864	1442
4.872	1425
4.88	1409
4.888	1393
4.896	1378
4.904	1368
4.912	1369
4.92	1386
4.928	1423
4.936	1486
4.944	1575
4.952	1690
4.96	1826
4.968	1976
4.976	2131
4.984	2281
4.992	2415
5	2526
5.008	2608
5.016	2659
5.024	2678
5.032	2665
5.04	2625
5.048	2562
5.056	2480
5.064	2385
5.072	2283
5.08	2179
5.088	2078
5.096	1982
5.104	1897
5.112	1825
5.12	1766
5.128	1720
5.136	1685
5.144	1661
5.152	1646
5.16	1637
5.168	1634
5.176	1634
5.184	1635
5.192	1636
5.2	1635
5.208	1633
5.216	1628
5.224	1620
5.232	1610
5.24	1597
5.248	1583
5.256	1568
5.264	1551
5.272	1533
5.28	1515
5.288	1496
5.296	1475
5.304	1455
5.312	1436
5.32	1416
5.328	1396
5.336	1377
5.344	1359
5.352	1342
5.36	1327
5.368	1320
5.376	1323
5.384	1342
5.392	1382
5.4	1448
5.408	1542
5.416	1660
5.424	1796
5.432	1944
5.44	2092
5.448	2229
5.456	2348
5.464	2440
5.472	2502
5.48	2532
5.488	2531
5.496	2501
5.504	2444.99999999999
5.512	2368.99999999999
5.52	2277.99999999999
5.528	2175.99999999999
5.536	2068.99999999999
5.544	1964.99999999999
5.552	1865.99999999999
5.56	1773.99999999999
5.568	1693.99999999999
5.576	1626.99999999999
5.584	1573.99999999999
5.592	1534
5.6	1505
5.608	1485
5.616	1472
5.624	1463
5.632	1458
5.64	1454
5.648	1449
5.656	1444
5.664	1439
5.672	1434
5.68	1427
5.688	1420
5.696	1412
5.704	1403
5.712	1393
5.72	1382
5.728	1370
5.736	1357
5.744	1344
5.752	1330
5.76	1315
5.768	1300
5.776	1282
5.784	1263
5.792	1246
5.8	1229
5.808	1213
5.816	1198
5.824	1185
5.832	1178
5.84	1180
5.848	1197
5.856	1234
5.864	1293
5.872	1377
5.88	1486
5.888	1615
5.896	1756
5.904	1899
5.912	2036
5.92	2156
5.928	2253
5.936	2323
5.944	2362
5.952	2370
5.96	2348
5.968	2300
5.976	2233
5.984	2152
5.992	2060
6	1962
6.008	1864
6.016	1772
6.024	1689
6.032	1618
6.04	1559
6.048	1530
6.056	1521
6.064	1512
6.072	1507
6.08	1506
6.088	1506
6.096	1509
6.104	1514
6.112	1518
6.12	1521
6.128	1523
6.136	1523
6.144	1521
6.152	1517
6.16	1512
6.168	1505
6.176	1497
6.184	1487
6.192	1474
6.2	1459
6.208	1443
6.216	1426
6.224	1409
6.232	1392
6.24	1373
6.248	1355
6.256	1337
6.264	1319
6.272	1304
6.28	1291
6.288	1282
6.296	1281
6.304	1291
6.312	1316
6.32	1361
6.328	1430
6.336	1525
6.344	1644
6.352	1780
6.36	1927
6.368	2075
6.376	2213
6.384	2333
6.392	2427
6.4	2490
6.408	2520
6.416	2519
6.424	2490
6.432	2434
6.44	2358
6.448	2269
6.456	2172
6.464	2071
6.472	1974
6.48	1884
6.488	1805
6.496	1739
6.504	1684.99999999999
6.512	1643
6.52	1614
6.528	1595
6.536	1584
6.544	1578
6.552	1577
6.56	1579
6.568	1582
6.576	1586
6.584	1590
6.592	1593
6.6	1595
6.608	1595
6.616	1591
6.624	1585
6.632	1577
6.64	1567
6.648	1557
6.656	1544
6.664	1528
6.672	1511
6.68	1494
6.688	1476
6.696	1456
6.704	1435
6.712	1416
6.72	1399
6.728	1384
6.736	1369
6.744	1357
6.752	1349
6.76	1349
6.768	1363
6.776	1396
6.784	1452
6.792	1536
6.8	1647
6.808	1782
6.816	1933
6.824	2090
6.832	2241
6.84	2377
6.848	2489
6.856	2572
6.864	2623
6.872	2641
6.88	2627
6.888	2587
6.896	2525
6.904	2444
6.912	2350
6.92	2250
6.928	2149
6.936	2053
6.944	1963
6.952	1883
6.96	1817
6.968	1765
6.976	1726
6.984	1699
6.992	1684
7	1677
7.008	1676
7.016	1679
7.024	1686
7.032	1693
7.04	1700
7.048	1704
7.056	1706
7.064	1706
7.072	1703
7.08	1699
7.088	1693
7.096	1684
7.104	1673
7.112	1661
7.12	1648
7.128	1634
7.136	1620
7.144	1605
7.152	1590
7.16	1575
7.168	1561
7.176	1546
7.184	1529
7.192	1513
7.2	1499
7.208	1489
7.216	1485
7.224	1492
7.232	1516
7.24	1564
7.248	1641
7.256	1748
7.264	1881
7.272	2035
7.28	2198
7.288	2360
7.296	2510
7.304	2638
7.312	2737
7.32	2803
7.328	2835
7.336	2835
7.344	2807
7.352	2754
7.36	2681
7.368	2594
7.376	2497
7.384	2397
7.392	2297
7.4	2201
7.408	2114
7.416	2039
7.424	1977
7.432	1927
7.44	1889
7.448	1863
7.456	1846
7.464	1835
7.472	1830
7.48	1828
7.488	1828
7.496	1828
7.504	1827
7.512	1825
7.52	1821
7.528	1814
7.536	1805
7.544	1795
7.552	1783
7.56	1770
7.568	1754
7.576	1737
7.584	1721
7.592	1704
7.6	1686
7.608	1669
7.616	1653
7.624	1637
7.632	1621
7.64	1605
7.648	1589
7.656	1572
7.664	1554
7.672	1539
7.68	1530
7.688	1531
7.696	1552
7.704	1598
7.712	1673
7.72	1778
7.728	1908
7.736	2058
7.744	2219
7.752	2379
7.76	2526
7.768	2649
7.776	2742
7.784	2802
7.792	2829
7.8	2824
7.808	2792
7.816	2737
7.824	2663
7.832	2575
7.84	2477
7.848	2375
7.856	2273
7.864	2175
7.872	2085
7.88	2005
7.888	1937
7.896	1882
7.904	1838
7.912	1804
7.92	1779
7.928	1762
7.936	1750
7.944	1742
7.952	1736
7.96	1730
7.968	1724
7.976	1717
7.984	1709
7.992	1698
8	1683
8.008	1667
8.016	1649
8.024	1630
8.032	1610
8.04	1590
8.048	1570
8.056	1550
8.064	1531
8.072	1513
8.08	1494
8.088	1473.99999999999
8.096	1442
8.104	1403.99999999999
8.112	1374
8.12	1347.99999999999
8.128	1325
8.136	1305
8.144	1289
8.152	1280
8.16	1283
8.168	1305.00000000001
8.176	1351
8.184	1425.00000000002
8.192	1527
8.2	1656
8.208	1803
8.216	1959
8.224	2112
8.232	2250
8.24	2366
8.248	2452
8.256	2505
8.264	2525
8.272	2513
8.28	2475
8.288	2416
8.296	2339
8.304	2250
8.312	2154
8.32	2058
8.328	1966
8.336	1882
8.344	1807
8.352	1742
8.36	1688
8.368	1645
8.376	1613
8.384	1590
8.392	1574
8.4	1566
8.408	1564
8.416	1565
8.424	1567
8.432	1568
8.44	1567
8.448	1565
8.456	1561
8.464	1556
8.472	1549
8.48	1540
8.488	1530
8.496	1520
8.504	1510
8.512	1499
8.52	1487
8.528	1474
8.536	1460
8.544	1446
8.552	1430
8.56	1413
8.568	1397
8.576	1381
8.584	1365
8.592	1350
8.6	1336
8.608	1324
8.616	1317
8.624	1319
8.632	1333
8.64	1365
8.648	1419
8.656	1498
8.664	1601
8.672	1726
8.68	1866
8.688	2011
8.696	2151
8.704	2276
8.712	2379
8.72	2454
8.728	2495
8.736	2506
8.744	2488
8.752	2445
8.76	2383
8.768	2306
8.776	2219
8.784	2128
8.792	2036
8.8	1948
8.808	1868
8.816	1798
8.824	1740
8.832	1695
8.84	1663
8.848	1643
8.856	1633
8.864	1630
8.872	1632
8.88	1638
8.888	1645
8.896	1652
8.904	1657
8.912	1660
8.92	1659
8.928	1656
8.936	1650
8.944	1641
8.952	1630
8.96	1618
8.968	1604
8.976	1588
8.984	1572
8.992	1556
9	1540
9.008	1524
9.016	1507
9.024	1490
9.032	1474
9.04	1459
9.048	1446
9.056	1433
9.064	1421
9.072	1411
9.08	1403
9.088	1401
9.096	1410
9.104	1434.00000000001
9.112	1478
9.12	1547.00000000002
9.128	1642
9.136	1760.00000000003
9.144	1897
9.152	2117.00000000004
9.16	2259
9.168	2386.00000000003
9.176	2533
9.184	2591.00000000001
9.192	2616
9.2	2611
9.208	2554
9.216	2491.99999999998
9.224	2416
9.232	2240
9.24	2149
9.248	2063
9.256	1947
9.264	1883
9.272	1830
9.28	1789
9.288	1760
9.296	1741
9.304	1732
9.312	1730
9.32	1737
9.328	1742
9.336	1747
9.344	1752
9.352	1751
9.36	1749
9.368	1744
9.376	1735
9.384	1725
9.392	1714
9.4	1700
9.408	1684
9.416	1669
9.424	1654
9.432	1638
9.44	1623
9.448	1607
9.456	1591
9.464	1576
9.472	1561
9.48	1548
9.488	1535
9.496	1522
9.504	1508
9.512	1496
9.52	1488
9.528	1489
9.536	1506
9.544	1543
9.552	1606
9.56	1697
9.568	1816
9.576	1957
9.584	2113
9.592	2273
9.6	2426
9.608	2559
9.616	2667
9.624	2746
9.632	2792
9.64	2805
9.648	2788
9.656	2746
9.664	2685
9.672	2610
9.68	2526
9.688	2438
9.696	2349
9.704	2263
9.712	2183
9.72	2111
9.728	2050
9.736	2001
9.744	1964
9.752	1938
9.76	1923
9.768	1916
9.776	1913
9.784	1914
9.792	1916
9.8	1919
9.808	1921
9.816	1919
9.824	1915
9.832	1908
9.84	1897
9.848	1886
9.856	1873
9.864	1860
9.872	1845
9.88	1830
9.888	1815
9.896	1799
9.904	1783
9.912	1768
9.92	1752
9.928	1736
9.936	1720
9.944	1705
9.952	1692
9.96	1678
9.968	1664
9.976	1651
9.984	1640
9.992	1632
10	1633
10.008	1650.00000000001
10.016	1689
10.024	1758.00000000002
10.032	1857
10.04	1985.00000000003
10.048	2136
10.056	2298.00000000004
10.064	2460
10.072	2612.00000000003
10.08	2743
10.088	2845.00000000002
10.096	2914
10.104	2950
10.112	2927
10.12	2863.99999999999
10.128	2799
10.136	2727.99999999998
10.144	2649
10.152	2563.99999999998
10.16	2475
10.168	2386.99999999998
10.176	2302
10.184	2222.99999999998
10.192	2154
10.2	2093.99999999999
10.208	2045
10.216	2007.99999999999
10.224	1981
10.232	1963
10.24	1950
10.248	1939
10.256	1931
10.264	1923
10.272	1915
10.28	1907
10.288	1897
10.296	1885
10.304	1870
10.312	1852
10.32	1834
10.328	1816
10.336	1796
10.344	1774
10.352	1751
10.36	1729
10.368	1708
10.376	1686
10.384	1663
10.392	1640
10.4	1617
10.408	1596
10.416	1575
10.424	1554
10.432	1532
10.44	1511
10.448	1491
10.456	1472
10.464	1455
10.472	1445
10.48	1448
10.488	1468
10.496	1512
10.504	1583
10.512	1680
10.52	1801
10.528	1940
10.536	2085
10.544	2226
10.552	2351
10.56	2455
10.568	2531
10.576	2576
10.584	2590
10.592	2576
10.6	2538
10.608	2481
10.616	2410
10.624	2328
10.632	2242
10.64	2154
10.648	2067
10.656	1986
10.664	1912
10.672	1848
10.68	1795
10.688	1753
10.696	1722
10.704	1701
10.712	1688
10.72	1680
10.728	1676
10.736	1674
10.744	1673
10.752	1673
10.76	1671
10.768	1666
10.776	1658
10.784	1648
10.792	1637
10.8	1624
10.808	1609
10.816	1594
10.824	1577
10.832	1560
10.84	1541
10.848	1523
10.856	1507
10.864	1491
10.872	1474
10.88	1457
10.888	1442
10.896	1427
10.904	1412
10.912	1397
10.92	1384
10.928	1371
10.936	1360
10.944	1351
10.952	1348
10.96	1356
10.968	1380
10.976	1423
10.984	1490
10.992	1580
11	1691
11.008	1818.00000000003
11.016	1951
11.024	2082.00000000003
11.032	2200
11.04	2297.00000000002
11.048	2369
11.056	2413
11.064	2427
11.072	2415
11.08	2382
11.088	2328.99999999999
11.096	2263
11.104	2187.99999999998
11.112	2107
11.12	2025.99999999998
11.128	1947
11.136	1874.99999999998
11.144	1811
11.152	1756.99999999999
11.16	1714
11.168	1679.99999999999
11.176	1655
11.184	1639
11.192	1630
11.2	1626
11.208	1627
11.216	1631
11.224	1636
11.232	1641
11.24	1644
11.248	1642
11.256	1637
11.264	1630
11.272	1619
11.28	1607
11.288	1595
11.296	1582
11.304	1566
11.312	1549
11.32	1532
11.328	1514
11.336	1498
11.344	1483
11.352	1468
11.36	1451
11.368	1435
11.376	1421
11.384	1408
11.392	1396
11.4	1386
11.408	1378
11.416	1373
11.424	1374
11.432	1383
11.44	1405
11.448	1444
11.456	1504
11.464	1588
11.472	1693
11.48	1816
11.488	1949
11.496	2082
11.504	2206
11.512	2314
11.52	2398
11.528	2455
11.536	2485
11.544	2487
11.552	2463
11.56	2418
11.568	2356
11.576	2281
11.584	2199
11.592	2114
11.6	2030
11.608	1951
11.616	1880
11.624	1818
11.632	1766
11.64	1725
11.648	1695
11.656	1675
11.664	1664
11.672	1659
11.68	1661
11.688	1668
11.696	1677
11.704	1687
11.712	1695
11.72	1700
11.728	1701
11.736	1699
11.744	1693
11.752	1684
11.76	1672
11.768	1657
11.776	1640
11.784	1621
11.792	1602
11.8	1583
11.808	1565
11.816	1546
11.824	1527
11.832	1510
11.84	1492
11.848	1475
11.856	1460
11.864	1445
11.872	1431
11.88	1418
11.888	1408
11.896	1403
11.904	1408
11.912	1427
11.92	1466
11.928	1529
11.936	1620
11.944	1735
11.952	1870
11.96	2017
11.968	2167
11.976	2308
11.984	2431
11.992	2530
12	2598
12.008	2636
12.016	2645
12.024	2626.99999999999
12.032	2585
12.04	2524.99999999999
12.048	2452
12.056	2369.99999999998
12.064	2285
12.072	2200.99999999998
12.08	2120
12.088	2044.99999999998
12.096	1979
12.104	1921.99999999999
12.112	1875
12.12	1839.99999999999
12.128	1817
12.136	1805
12.144	1800
12.152	1800
12.16	1787
12.168	1767
12.176	1760
12.184	1758
12.192	1756
12.2	1751
12.208	1745
12.216	1737
12.224	1725
12.232	1711
12.24	1695
12.248	1678
12.256	1660
12.264	1641
12.272	1624
12.28	1607
12.288	1589
12.296	1570
12.304	1550
12.312	1531
12.32	1516
12.328	1502
12.336	1488
12.344	1474
12.352	1461
12.36	1451
12.368	1445
12.376	1447
12.384	1464
12.392	1503
12.4	1570
12.408	1667
12.416	1792
12.424	1941
12.432	2107
12.44	2277
12.448	2441
12.456	2587
12.464	2706
12.472	2792
12.48	2844
12.488	2863
12.496	2852
12.504	2814
12.512	2755
12.52	2680
12.528	2593
12.536	2500
12.544	2404
12.552	2310
12.56	2221
12.568	2140
12.576	2068
12.584	2009
12.592	1963
12.6	1927
12.608	1901
12.616	1884
12.624	1873
12.632	1868
12.64	1866
12.648	1866
12.656	1866
12.664	1864
12.672	1860
12.68	1853
12.688	1844
12.696	1831
12.704	1815
12.712	1796
12.72	1774
12.728	1750
12.736	1725
12.744	1700
12.752	1673
12.76	1645
12.768	1617
12.776	1591
12.784	1566
12.792	1542
12.8	1521
12.808	1502
12.816	1482
12.824	1462
12.832	1442
12.84	1423
12.848	1408
12.856	1400
12.864	1406
12.872	1433
12.88	1488
12.888	1572
12.896	1684
12.904	1820
12.912	1972
12.92	2130
12.928	2282
12.936	2418
12.944	2531
12.952	2615
12.96	2666
12.968	2685
12.976	2675
12.984	2637
12.992	2577
13	2501
13.008	2413.99999999998
13.016	2320
13.024	2224.99999999998
13.032	2131
13.04	2039.99999999998
13.048	1957
13.056	1883.99999999998
13.064	1820
13.072	1766.99999999999
13.08	1724
13.088	1689.99999999999
13.096	1665
13.104	1647
13.112	1636
13.12	1630
13.128	1627
13.136	1626
13.144	1623
13.152	1618
13.16	1611
13.168	1602
13.176	1588
13.184	1571
13.192	1552
13.2	1531
13.208	1511
13.216	1490
13.224	1467
13.232	1443.99999999999
13.24	1421
13.248	1397.99999999999
13.256	1374
13.264	1352
13.272	1331
13.28	1311
13.288	1292
13.296	1274
13.304	1257
13.312	1241
13.32	1225
13.328	1211
13.336	1202
13.344	1200
13.352	1212
13.36	1244
13.368	1299
13.376	1381
13.384	1489
13.392	1619
13.4	1763
13.408	1911
13.416	2052
13.424	2176
13.432	2279
13.44	2355
13.448	2400
13.456	2415
13.464	2402
13.472	2364
13.48	2306
13.488	2231
13.496	2146
13.504	2055
13.512	1964
13.52	1875
13.528	1793
13.536	1721
13.544	1659
13.552	1607
13.56	1566
13.568	1536
13.576	1517
13.584	1508
13.592	1505
13.6	1506
13.608	1508
13.616	1511
13.624	1514
13.632	1515
13.64	1514
13.648	1509
13.656	1504
13.664	1497
13.672	1487
13.68	1473
13.688	1457
13.696	1440
13.704	1422
13.712	1404
13.72	1385
13.728	1367
13.736	1348
13.744	1328
13.752	1309
13.76	1291
13.768	1274
13.776	1259
13.784	1246
13.792	1231
13.8	1217
13.808	1206
13.816	1198
13.824	1196
13.832	1208
13.84	1239
13.848	1294
13.856	1374
13.864	1478
13.872	1605
13.88	1748
13.888	1894
13.896	2035
13.904	2164
13.912	2273
13.92	2356
13.928	2408
13.936	2430
13.944	2423
13.952	2390
13.96	2335
13.968	2265
13.976	2183
13.984	2095
13.992	2005
14	1917
14.008	1832.99999999998
14.016	1755
14.024	1686.99999999999
14.032	1630
14.04	1582.99999999999
14.048	1548
14.056	1525
14.064	1513
14.072	1509
14.08	1512
14.088	1518
14.096	1526
14.104	1536
14.112	1545
14.12	1551
14.128	1554
14.136	1553
14.144	1548
14.152	1537
14.16	1523
14.168	1506
14.176	1485
14.184	1462.99999999999
14.192	1440
14.2	1417
14.208	1402
14.216	1391
14.224	1377
14.232	1361
14.24	1345
14.248	1330
14.256	1316
14.264	1303
14.272	1291
14.28	1280
14.288	1271
14.296	1267
14.304	1272
14.312	1292.00000000001
14.32	1333
14.328	1400.00000000002
14.336	1492
14.344	1608
14.352	1745
14.36	1896
14.368	2049
14.376	2195
14.384	2325
14.392	2432
14.4	2511
14.408	2562
14.416	2583
14.424	2575
14.432	2542
14.44	2489
14.448	2421
14.456	2341
14.464	2254
14.472	2164
14.48	2077
14.488	1996
14.496	1919
14.504	1852
14.512	1796
14.52	1751
14.528	1717
14.536	1694
14.544	1681
14.552	1676
14.56	1677
14.568	1683
14.576	1691
14.584	1699
14.592	1704
14.6	1706
14.608	1707
14.616	1707
14.624	1703
14.632	1695
14.64	1684
14.648	1669
14.656	1654
14.664	1638
14.672	1621
14.68	1604
14.688	1586
14.696	1568
14.704	1550
14.712	1532
14.72	1515
14.728	1500
14.736	1484
14.744	1469
14.752	1455
14.76	1441
14.768	1431
14.776	1428
14.784	1437
14.792	1467
14.8	1522
14.808	1605
14.816	1717
14.824	1853
14.832	2007
14.84	2171
14.848	2332
14.856	2479
14.864	2607
14.872	2708
14.88	2777
14.888	2816
14.896	2825
14.904	2806
14.912	2763
14.92	2703
14.928	2629
14.936	2547
14.944	2460
14.952	2371
14.96	2285
14.968	2204
14.976	2130
14.984	2065
14.992	2012
15	1970
15.008	1937.99999999999
15.016	1914
15.024	1898
15.032	1890
15.04	1887
15.048	1887
15.056	1888
15.064	1887
15.072	1885
15.08	1882
15.088	1876
15.096	1867
15.104	1858
15.112	1846
15.12	1831
15.128	1814
15.136	1793
15.144	1772
15.152	1748.99999999999
15.16	1725
15.168	1700.99999999999
15.176	1677
15.184	1655
15.192	1635
15.2	1616
15.208	1597
15.216	1579
15.224	1561
15.232	1544
15.24	1528
15.248	1515
15.256	1509
15.264	1513
15.272	1533
15.28	1575.00000000001
15.288	1643
15.296	1738.00000000002
15.304	1858
15.312	1998.00000000003
15.32	2150
15.328	2304.00000000003
15.336	2449
15.344	2577.00000000003
15.352	2680
15.36	2753
15.368	2796
15.376	2808
15.384	2792
15.392	2752
15.4	2694
15.408	2622
15.416	2540
15.424	2451
15.432	2359
15.44	2268
15.448	2181
15.456	2101
15.464	2028
15.472	1964
15.48	1912
15.488	1871
15.496	1841
15.504	1820
15.512	1804
15.52	1794
15.528	1788
15.536	1784
15.544	1781
15.552	1778
15.56	1772
15.568	1763
15.576	1753
15.584	1740
15.592	1722
15.6	1701
15.608	1678
15.616	1653
15.624	1629
15.632	1604
15.64	1577
15.648	1551
15.656	1526
15.664	1501
15.672	1478
15.68	1455
15.688	1435
15.696	1418
15.704	1402
15.712	1386
15.72	1369
15.728	1353
15.736	1339
15.744	1331
15.752	1334
15.76	1353
15.768	1394
15.776	1458
15.784	1548
15.792	1661
15.8	1791
15.808	1932
15.816	2074
15.824	2208
15.832	2326
15.84	2421
15.848	2489
15.856	2528
15.864	2538
15.872	2523
15.88	2487
15.888	2432
15.896	2361
15.904	2281
15.912	2197
15.92	2111
15.928	2026
15.936	1945
15.944	1872
15.952	1807
15.96	1752
15.968	1707
15.976	1674
15.984	1651
15.992	1637
16	1629
16.008	1626
16.016	1626
16.024	1628
16.032	1631
16.04	1634
16.048	1635
16.056	1634
16.064	1629
16.072	1622
16.08	1612
16.088	1600
16.096	1585
16.104	1567
16.112	1547.99999999999
16.12	1528
16.128	1508
16.136	1488
16.144	1466.99999999999
16.152	1448
16.16	1429
16.168	1411
16.176	1394.99999999999
16.184	1381
16.192	1368
16.2	1356
16.208	1346
16.216	1337
16.224	1332
16.232	1334
16.24	1348.00000000001
16.248	1378
16.256	1410
16.264	1461
16.272	1555.00000000005
16.28	1678
16.288	1821
16.296	1974
16.304	2123.00000000006
16.312	2261
16.32	2378
16.328	2467
16.336	2527.00000000002
16.344	2556
16.352	2556
16.36	2529
16.368	2478.99999999997
16.376	2410
16.384	2327
16.392	2238
16.4	2145
16.408	2052
16.416	1961
16.424	1878
16.432	1804
16.44	1740
16.448	1687
16.456	1644
16.464	1610
16.472	1587
16.48	1574
16.488	1568
16.496	1567
16.504	1570
16.512	1575
16.52	1580
16.528	1582
16.536	1582
16.544	1580
16.552	1576
16.56	1568
16.568	1556
16.576	1542
16.584	1525
16.592	1506
16.6	1486
16.608	1466
16.616	1446
16.624	1426
16.632	1405
16.64	1383
16.648	1361
16.656	1341
16.664	1323
16.672	1307
16.68	1292
16.688	1278
16.696	1267
16.704	1262
16.712	1267
16.72	1288
16.728	1331
16.736	1401
16.744	1499
16.752	1625
16.76	1774
16.768	1938
16.776	2107
16.784	2272
16.792	2422
16.8	2547
16.808	2642
16.816	2704
16.824	2732
16.832	2729
16.84	2699
16.848	2645
16.856	2573
16.864	2487
16.872	2392
16.88	2294
16.888	2198
16.896	2106
16.904	2019
16.912	1940
16.92	1872
16.928	1817
16.936	1774
16.944	1742
16.952	1722
16.96	1712
16.968	1709
16.976	1711
16.984	1716
16.992	1721
17	1726
17.008	1729
17.016	1729
17.024	1725
17.032	1718
17.04	1707
17.048	1693.99999999999
17.056	1679
17.064	1663
17.072	1645
17.08	1624.99999999999
17.088	1605
17.096	1586
17.104	1566
17.112	1544.99999999999
17.12	1524
17.128	1503
17.136	1484
17.144	1466.99999999999
17.152	1453
17.16	1441
17.168	1432
17.176	1426
17.184	1428
17.192	1444
17.2	1480
17.208	1542.00000000003
17.216	1633
17.224	1754
17.232	1900
17.24	2066.00000000008
17.248	2243
17.256	2420
17.264	2584
17.272	2728.00000000006
17.28	2845
17.288	2928
17.296	2976
17.304	2991
17.312	2977
17.32	2938
17.328	2876
17.336	2797.99999999996
17.344	2711
17.352	2619
17.36	2523
17.368	2426.99999999996
17.376	2336
17.384	2252
17.392	2178
17.4	2114.99999999997
17.408	2064
17.416	2025
17.424	1997
17.432	1978
17.44	1967
17.448	1962
17.456	1959
17.464	1958
17.472	1956
17.48	1953
17.488	1948
17.496	1938
17.504	1925
17.512	1911
17.52	1895
17.528	1877
17.536	1858
17.544	1837
17.552	1815
17.56	1792
17.568	1768
17.576	1744
17.584	1720
17.592	1697
17.6	1676
17.608	1655
17.616	1635
17.624	1615
17.632	1596
17.64	1578
17.648	1561
17.656	1549
17.664	1547
17.672	1560
17.68	1594
17.688	1657
17.696	1753
17.704	1880
17.712	2032
17.72	2202
17.728	2380
17.736	2554
17.744	2715
17.752	2854
17.76	2962
17.768	3037
17.776	3078
17.784	3087
17.792	3069
17.8	3026
17.808	2962
17.816	2882
17.824	2791
17.832	2694
17.84	2595
17.848	2497
17.856	2402
17.864	2314
17.872	2235
17.88	2167
17.888	2110
17.896	2063
17.904	2027
17.912	2000
17.92	1980
17.928	1966
17.936	1956
17.944	1949
17.952	1941
17.96	1930
17.968	1917
17.976	1903
17.984	1886
17.992	1864
18	1840
18.008	1814
18.016	1785.99999999999
18.024	1757
18.032	1729
18.04	1702
18.048	1673.99999999999
18.056	1646
18.064	1619
18.072	1594
18.08	1567.99999999999
18.088	1541
18.096	1515
18.104	1491
18.112	1469.99999999999
18.12	1451
18.128	1435
18.136	1423
18.144	1417
18.152	1421
18.16	1440
18.168	1479
18.176	1545.00000000003
18.184	1638
18.192	1757
18.2	1899
18.208	2053.00000000007
18.216	2212
18.224	2365
18.232	2502
18.24	2615.00000000004
18.248	2701
18.256	2757
18.264	2782
18.272	2776
18.28	2743
18.288	2689
18.296	2617
18.304	2490.99999999994
18.312	2339
18.32	2219
18.328	2116
18.336	2022.99999999996
18.344	1942
18.352	1871
18.36	1810
18.368	1757.99999999998
18.376	1717
18.384	1686
18.392	1662
18.4	1643.99999999999
18.408	1631
18.416	1624
18.424	1620
18.432	1618
18.44	1617
18.448	1616
18.456	1612
18.464	1605
18.472	1597
18.48	1586
18.488	1571
18.496	1555
18.504	1537
18.512	1517
18.52	1497
18.528	1477
18.536	1455
18.544	1433
18.552	1412
18.56	1392
18.568	1374
18.576	1358
18.584	1344
18.592	1330
18.6	1317
18.608	1307
18.616	1298
18.624	1293
18.632	1297
18.64	1312
18.648	1344
18.656	1396
18.664	1469
18.672	1564
18.68	1676
18.688	1800
18.696	1930
18.704	2058
18.712	2174
18.72	2272
18.728	2349
18.736	2402
18.744	2427
18.752	2426
18.76	2401
18.768	2357
18.776	2297
18.784	2225
18.792	2146
18.8	2064
18.808	1982
18.816	1904
18.824	1833
18.832	1770
18.84	1716
18.848	1673
18.856	1640
18.864	1615
18.872	1599
18.88	1590
18.888	1586
18.896	1585
18.904	1586
18.912	1588
18.92	1590
18.928	1589
18.936	1586
18.944	1581
18.952	1573
18.96	1563
18.968	1551
18.976	1536
18.984	1519
18.992	1502
19	1484
19.008	1465
19.016	1444.99999999999
19.024	1424
19.032	1404
19.04	1387
19.048	1371.99999999999
19.056	1358
19.064	1346
19.072	1335
19.08	1326
19.088	1318
19.096	1313
19.104	1315
19.112	1328.00000000001
19.12	1356
19.128	1405
19.136	1479
19.144	1576.00000000005
19.152	1692
19.16	1824
19.168	1964
19.176	2103.00000000006
19.184	2234
19.192	2349
19.2	2443
19.208	2511.00000000002
19.216	2551
19.224	2562
19.232	2547
19.24	2510.99999999998
19.248	2456
19.256	2387
19.264	2310
19.272	2225.99999999996
19.28	2140
19.288	2056
19.296	1975
19.304	1900.99999999997
19.312	1837
19.32	1784
19.328	1742
19.336	1711.99999999999
19.344	1692
19.352	1680
19.36	1672
19.368	1670
19.376	1669
19.384	1668
19.392	1665
19.4	1661
19.408	1655
19.416	1647
19.424	1636
19.432	1622.99999999999
19.44	1610
19.448	1596
19.456	1581
19.464	1566
19.472	1550
19.48	1533
19.488	1517
19.496	1502
19.504	1487
19.512	1464
19.52	1450
19.528	1437
19.536	1415
19.544	1409
19.552	1408
19.56	1439
19.568	1481
19.576	1546
19.584	1684
19.592	1805
19.6	1943
19.608	2088
19.616	2231
19.624	2367
19.632	2486
19.64	2584
19.648	2657
19.656	2702
19.664	2719
19.672	2712
19.68	2682
19.688	2632
19.696	2567
19.704	2492
19.712	2410
19.72	2326
19.728	2244
19.736	2167
19.744	2097
19.752	2035
19.76	1982
19.768	1936
19.776	1898
19.784	1869
19.792	1849
19.8	1837
19.808	1831
19.816	1829
19.824	1829
19.832	1829
19.84	1828
19.848	1824
19.856	1818
19.864	1810
19.872	1799
19.88	1786
19.888	1771
19.896	1755
19.904	1738
19.912	1721
19.92	1704
19.928	1686
19.936	1668
19.944	1649
19.952	1632
19.96	1616
19.968	1601
19.976	1586
19.984	1570
19.992	1554
20	1538
20.008	1525
20.016	1519
20.024	1525
20.032	1548
20.04	1592
20.048	1662.00000000004
20.056	1760
20.064	1882
20.072	2022
20.08	2173.00000000007
20.088	2324
20.096	2466
20.104	2592
20.112	2695.00000000004
20.12	2773
20.128	2822
20.136	2842
20.144	2837
20.152	2809
20.16	2760
20.168	2695
20.176	2619.99999999996
20.184	2536
20.192	2448
20.2	2361
20.208	2279.99999999996
20.216	2204
20.224	2136
20.232	2079
20.24	2030.99999999998
20.248	1992
20.256	1961
20.264	1937
20.272	1917.99999999999
20.28	1903
20.288	1892
20.296	1881
20.304	1870
20.312	1859
20.32	1838
20.328	1809
20.336	1785.99999999999
20.344	1764
20.352	1742
20.36	1718
20.368	1692.99999999999
20.376	1668
20.384	1641
20.392	1614
20.4	1587.99999999999
20.408	1564
20.416	1540
20.424	1518
20.432	1496.99999999999
20.44	1476
20.448	1455
20.456	1434
20.464	1411.99999999999
20.472	1392
20.48	1375
20.488	1364
20.496	1362
20.504	1373
20.512	1402
20.52	1453
20.528	1528
20.536	1626
20.544	1744
20.552	1875
20.56	2014
20.568	2150
20.576	2277
20.584	2388
20.592	2475
20.6	2537
20.608	2570
20.616	2575
20.624	2554
20.632	2508
20.64	2445
20.648	2369
20.656	2283
20.664	2191
20.672	2098
20.68	2009
20.688	1927
20.696	1854
20.704	1791
20.712	1738
20.72	1693
20.728	1658
20.736	1630
20.744	1607
20.752	1589
20.76	1577
20.768	1570
20.776	1565
20.784	1563
20.792	1561
20.8	1557
20.808	1551
20.816	1543
20.824	1532
20.832	1519
20.84	1505
20.848	1488
20.856	1470
20.864	1452
20.872	1433
20.88	1414
20.888	1395
20.896	1377
20.904	1358
20.912	1339
20.92	1321
20.928	1302
20.936	1284
20.944	1268
20.952	1253
20.96	1241
20.968	1235
20.976	1240
20.984	1258
20.992	1293
21	1349
21.008	1427
21.016	1525.00000000005
21.024	1639
21.032	1764
21.04	1893
21.048	2019.00000000005
21.056	2132
21.064	2225
21.072	2295
21.08	2338.00000000001
21.088	2352
21.096	2340
21.104	2305
21.112	2250.99999999997
21.12	2181
21.128	2101
21.136	2017
21.144	1930.99999999996
21.152	1847
21.16	1770
21.168	1701
21.176	1642.99999999998
21.184	1595
21.192	1557
21.2	1530
21.208	1510.99999999999
21.216	1499
21.224	1493
21.232	1491
21.24	1491
21.248	1492
21.256	1491
21.264	1489
21.272	1485
21.28	1478
21.288	1467
21.296	1457
21.304	1448
21.312	1436
21.32	1423
21.328	1410
21.336	1395.99999999999
21.344	1382
21.352	1366
21.36	1349
21.368	1333.99999999999
21.376	1318
21.384	1301
21.392	1285
21.4	1269.99999999999
21.408	1256
21.416	1244
21.424	1235
21.432	1231
21.44	1233
21.448	1245
21.456	1273
21.464	1321.00000000003
21.472	1391
21.48	1482
21.488	1592
21.496	1718.00000000006
21.504	1851
21.512	1984
21.52	2109
21.528	2219
21.536	2308
21.544	2372
21.552	2408
21.56	2416
21.568	2397
21.576	2355
21.584	2295
21.592	2222
21.6	2139
21.608	2052
21.616	1964
21.624	1879
21.632	1802
21.64	1734
21.648	1677
21.656	1631
21.664	1596
21.672	1571
21.68	1555
21.688	1545
21.696	1539
21.704	1537
21.712	1537
21.72	1537
21.728	1537
21.736	1536
21.744	1532
21.752	1526
21.76	1518
21.768	1509
21.776	1499
21.784	1486
21.792	1471
21.8	1458
21.808	1445
21.816	1431
21.824	1416
21.832	1401
21.84	1386
21.848	1369
21.856	1353
21.864	1339
21.872	1327
21.88	1315
21.888	1305
21.896	1300
21.904	1303
21.912	1318
21.92	1347
21.928	1397
21.936	1470
21.944	1566
21.952	1684
21.96	1819
21.968	1964
21.976	2110
21.984	2250
21.992	2375
22	2478
22.008	2554
22.016	2601.00000000001
22.024	2618
22.032	2606
22.04	2569
22.048	2511.99999999997
22.056	2439
22.064	2356
22.072	2266
22.08	2173.99999999996
22.088	2084
22.096	2000
22.104	1925
22.112	1861.99999999997
22.12	1809
22.128	1767
22.136	1735
22.144	1710.99999999999
22.152	1695
22.16	1686
22.168	1682
22.176	1681
22.184	1681
22.192	1681
22.2	1680
22.208	1678
22.216	1676
22.224	1672
22.232	1666
22.24	1658
22.248	1647
22.256	1634
22.264	1619
22.272	1603.99999999999
22.28	1588
22.288	1573
22.296	1559
22.304	1543.99999999999
22.312	1528
22.32	1513
22.328	1498
22.336	1479.99999999999
22.344	1463
22.352	1449
22.36	1438
22.368	1441
22.376	1461
22.384	1496
22.392	1554
22.4	1640.00000000004
22.408	1756
22.416	1900
22.424	2067
22.432	2247.00000000008
22.44	2428
22.448	2598
22.456	2749
22.464	2873.00000000005
22.472	2963
22.48	3019
22.488	3041
22.496	3027.99999999999
22.504	2982
22.512	2912
22.52	2823
22.528	2722
22.536	2613
22.544	2502
22.552	2394
22.56	2293
22.568	2201
22.576	2119
22.584	2049
22.592	1991
22.6	1946
22.608	1912
22.616	1888
22.624	1873
22.632	1865
22.64	1860
22.648	1855
22.656	1851
22.664	1847
22.672	1840
22.68	1829
22.688	1816
22.696	1798
22.704	1778
22.712	1757
22.72	1736
22.728	1713
22.736	1690
22.744	1666
22.752	1642
22.76	1618
22.768	1593
22.776	1567
22.784	1539
22.792	1512
22.8	1486
22.808	1462
22.816	1440
22.824	1421
22.832	1409
22.84	1409
22.848	1426
22.856	1463
22.864	1526
22.872	1616
22.88	1735
22.888	1879
22.896	2039
22.904	2204
22.912	2361
22.92	2505
22.928	2628
22.936	2722
22.944	2784
22.952	2813
22.96	2810
22.968	2775
22.976	2713
22.984	2629
22.992	2530
23	2421
23.008	2307
23.016	2192.99999999995
23.024	2084
23.032	1982
23.04	1889
23.048	1807.99999999997
23.056	1741
23.064	1688
23.072	1647
23.08	1616.99999999999
23.088	1594
23.096	1577
23.104	1564
23.112	1552
23.12	1542
23.128	1533
23.136	1525
23.144	1515
23.152	1503
23.16	1492
23.168	1481
23.176	1467.99999999999
23.184	1453
23.192	1437
23.2	1418
23.208	1395.99999999999
23.216	1373
23.224	1350
23.232	1325
23.24	1299.99999999999
23.248	1272
23.256	1245
23.264	1221
23.272	1197.99999999999
23.28	1177
23.288	1160
23.296	1147
23.304	1142
23.312	1149
23.32	1173
23.328	1218
23.336	1289.00000000004
23.344	1387
23.352	1509
23.36	1651
23.368	1805.00000000007
23.376	1963
23.384	2115
23.392	2249
23.4	2358.00000000004
23.408	2437
23.416	2484
23.424	2495
23.432	2473.99999999999
23.44	2424
23.448	2349
23.456	2257
23.464	2152.99999999995
23.472	2041
23.48	1928
23.488	1820
23.496	1720.99999999996
23.504	1634
23.512	1561
23.52	1503
23.528	1456.99999999998
23.536	1423
23.544	1400
23.552	1386
23.56	1379
23.568	1377
23.576	1378
23.584	1379
23.592	1379
23.6	1377
23.608	1372
23.616	1364
23.624	1356
23.632	1348
23.64	1338
23.648	1326
23.656	1313
23.664	1298
23.672	1280
23.68	1260
23.688	1239
23.696	1218
23.704	1196
23.712	1173
23.72	1150
23.728	1128
23.736	1108
23.744	1092
23.752	1082
23.76	1078
23.768	1081
23.776	1097
23.784	1130
23.792	1182
23.8	1257
23.808	1357
23.816	1480
23.824	1623
23.832	1780
23.84	1939
23.848	2091
23.856	2225
23.864	2334
23.872	2411
23.88	2453
23.888	2459
23.896	2431
23.904	2374
23.912	2294
23.92	2197
23.928	2090
23.936	1978
23.944	1867
23.952	1764
23.96	1670
23.968	1589
23.976	1524
23.984	1471
23.992	1432
24	1405
24.008	1387
24.016	1376
24.024	1370
24.032	1369
24.04	1371
24.048	1372
24.056	1370
24.064	1366
24.072	1362
24.08	1357
24.088	1352
24.096	1347
24.104	1341
24.112	1330.99999999999
24.12	1318
24.128	1301
24.136	1282
24.144	1259.99999999999
24.152	1237
24.16	1215
24.168	1193
24.176	1171.99999999999
24.184	1151
24.192	1132
24.2	1114
24.208	1097.99999999999
24.216	1087
24.224	1084
24.232	1091
24.24	1116.00000000001
24.248	1164
24.256	1239
24.264	1343
24.272	1474.00000000006
24.28	1629
24.288	1802
24.296	1980
24.304	2153.00000000007
24.312	2311
24.32	2445
24.328	2547
24.336	2611.00000000002
24.344	2637
24.352	2626
24.36	2579
24.368	2504.99999999996
24.376	2409
24.384	2297
24.392	2178
24.4	2057.99999999995
24.408	1942
24.416	1844
24.424	1768
24.432	1703.99999999997
24.44	1651
24.448	1611
24.456	1583
24.464	1564.99999999999
24.472	1556
24.48	1553
24.488	1554
24.496	1555
24.504	1556
24.512	1556
24.52	1555
24.528	1553
24.536	1550
24.544	1545
24.552	1539
24.56	1533
24.568	1526
24.576	1516
24.584	1504
24.592	1491
24.6	1477
24.608	1461
24.616	1445
24.624	1429
24.632	1412
24.64	1393
24.648	1375
24.656	1357
24.664	1341
24.672	1330
24.68	1325
24.688	1332
24.696	1354
24.704	1395
24.712	1459
24.72	1548
24.728	1661
24.736	1796
24.744	1946
24.752	2103
24.76	2258
24.768	2400
24.776	2521
24.784	2615
24.792	2679
24.8	2711
24.808	2710
24.816	2678
24.824	2620
24.832	2541
24.84	2447
24.848	2344
24.856	2238
24.864	2134
24.872	2035
24.88	1945
24.888	1867
24.896	1802
24.904	1748
24.912	1708
24.92	1681
24.928	1665
24.936	1657
24.944	1653
24.952	1652
24.96	1653
24.968	1655
24.976	1656
24.984	1654
24.992	1650
25	1644
25.008	1635
25.016	1624.99999999999
25.024	1612
25.032	1595
25.04	1579
25.048	1562.99999999999
25.056	1545
25.064	1525
25.072	1503
25.08	1479.99999999999
25.088	1457
25.096	1436
25.104	1415
25.112	1394.99999999999
25.12	1375
25.128	1357
25.136	1344
25.144	1339
25.152	1348
25.16	1377
25.168	1431
25.176	1511.00000000004
25.184	1619
25.192	1751
25.2	1901
25.208	2061.00000000007
25.216	2221
25.224	2372
25.232	2505
25.24	2613.00000000004
25.248	2691
25.256	2736
25.264	2746
25.272	2723.99999999999
25.28	2671
25.288	2592
25.296	2494
25.304	2383.99999999995
25.312	2268
25.32	2152
25.328	2041
25.336	1938.99999999996
25.344	1847
25.352	1767
25.36	1700
25.368	1644.99999999998
25.376	1603
25.384	1571
25.392	1547
25.4	1529.99999999999
25.408	1517
25.416	1507
25.424	1498
25.432	1490
25.44	1483
25.448	1475
25.456	1464
25.464	1450.99999999999
25.472	1438
25.48	1423
25.488	1407
25.496	1388.99999999999
25.504	1369
25.512	1348
25.52	1326
25.528	1303.99999999999
25.536	1281
25.544	1256
25.552	1231
25.56	1206.99999999999
25.568	1183
25.576	1160
25.584	1138
25.592	1119.99999999999
25.6	1108
25.608	1105
25.616	1115
25.624	1143
25.632	1195
25.64	1274
25.648	1379
25.656	1508
25.664	1653
25.672	1808
25.68	1964
25.688	2111
25.696	2238
25.704	2335
25.712	2400
25.72	2430
25.728	2426
25.736	2391
25.744	2329
25.752	2246
25.76	2147
25.768	2039
25.776	1928
25.784	1817
25.792	1713
25.8	1619
25.808	1536
25.816	1467
25.824	1414
25.832	1374
25.84	1349
25.848	1336
25.856	1329
25.864	1328
25.872	1329
25.88	1331
25.888	1332
25.896	1331
25.904	1330
25.912	1328
25.92	1325
25.928	1321
25.936	1314
25.944	1303
25.952	1291
25.96	1277
25.968	1260
25.976	1241
25.984	1222
25.992	1201
26	1179
26.008	1156
26.016	1133.99999999999
26.024	1114
26.032	1096
26.04	1081
26.048	1069
26.056	1061
26.064	1059
26.072	1066
26.08	1087.00000000001
26.088	1128
26.096	1192
26.104	1283
26.112	1399.00000000006
26.12	1536
26.128	1687
26.136	1843
26.144	1994.00000000006
26.152	2131
26.16	2246
26.168	2330
26.176	2380.00000000001
26.184	2395
26.192	2377
26.2	2328
26.208	2252.99999999996
26.216	2159
26.224	2054
26.232	1945
26.24	1836.99999999995
26.248	1732
26.256	1634
26.264	1550
26.272	1480.99999999997
26.28	1427
26.288	1386
26.296	1358
26.304	1343
26.312	1337
26.32	1335
26.328	1335
26.336	1336
26.344	1336
26.352	1336
26.36	1335
26.368	1333
26.376	1330
26.384	1326
26.392	1321
26.4	1313
26.408	1302
26.416	1289
26.424	1274
26.432	1256.99999999999
26.44	1240
26.448	1221
26.456	1202
26.464	1222.00000000001
26.472	1262
26.48	1273
26.488	1271
26.496	1264
26.504	1256
26.512	1250
26.52	1250
26.528	1259.00000000001
26.536	1282
26.544	1323
26.552	1388
26.56	1478.00000000005
26.568	1594
26.576	1732
26.584	1884
26.592	2041.00000000007
26.6	2194
26.608	2332
26.616	2445
26.624	2528.00000000003
26.632	2577
26.64	2591
26.648	2572
26.656	2523
26.664	2450
26.672	2359
26.68	2257
26.688	2149
26.696	2042
26.704	1939
26.712	1844
26.72	1761
26.728	1691
26.736	1634
26.744	1591
26.752	1563
26.76	1547
26.768	1540
26.776	1539
26.784	1542
26.792	1546
26.8	1550
26.808	1554
26.816	1556
26.824	1556
26.832	1554
26.84	1549
26.848	1543
26.856	1534
26.864	1522
26.872	1508
26.88	1492
26.888	1475
26.896	1456
26.904	1435
26.912	1414
26.92	1393
26.928	1374
26.936	1355
26.944	1339
26.952	1325
26.96	1312
26.968	1303
26.976	1304
26.984	1316
26.992	1344
27	1393
27.008	1468
27.016	1570.00000000005
27.024	1699
27.032	1850
27.04	2014
27.048	2183.00000000007
27.056	2345
27.064	2488
27.072	2604
27.08	2688.00000000003
27.088	2736
27.096	2748
27.104	2726
27.112	2673.99999999997
27.12	2597
27.128	2501
27.136	2393
27.144	2280.99999999995
27.152	2170
27.16	2064
27.168	1968
27.176	1883.99999999997
27.184	1815
27.192	1762
27.2	1723
27.208	1697.99999999999
27.216	1683
27.224	1677
27.232	1676
27.24	1676
27.248	1678
27.256	1682
27.264	1685
27.272	1687
27.28	1688
27.288	1686
27.296	1682
27.304	1676
27.312	1666
27.32	1654
27.328	1641
27.336	1625.99999999999
27.344	1609
27.352	1592
27.36	1573
27.368	1553.99999999999
27.376	1534
27.384	1513
27.392	1492
27.4	1471.99999999999
27.408	1453
27.416	1436
27.424	1422
27.432	1417
27.44	1427
27.448	1457
27.456	1513
27.464	1598.00000000004
27.472	1714
27.48	1859
27.488	2026
27.496	2203.00000000008
27.504	2381
27.512	2548
27.52	2692
27.528	2806.00000000004
27.536	2884
27.544	2925
27.552	2930
27.56	2898.99999999998
27.568	2838
27.576	2752
27.584	2649
27.592	2534.99999999995
27.6	2415
27.608	2295
27.616	2182
27.624	2078.99999999996
27.632	1988
27.64	1911
27.648	1850
27.656	1803
27.664	1770
27.672	1747
27.68	1732
27.688	1721
27.696	1714
27.704	1709
27.712	1706
27.72	1703
27.728	1700
27.736	1694
27.744	1687
27.752	1677
27.76	1663
27.768	1647
27.776	1629
27.784	1610
27.792	1590
27.8	1569
27.808	1547
27.816	1524
27.824	1501
27.832	1479
27.84	1456
27.848	1431
27.856	1406
27.864	1381
27.872	1357
27.88	1335
27.888	1320
27.896	1316
27.904	1330
27.912	1368
27.92	1434
27.928	1531
27.936	1658
27.944	1809
27.952	1977
27.96	2150
27.968	2316
27.976	2463
27.984	2583
27.992	2670
28	2719
28.008	2730
28.016	2702.99999999998
28.024	2646
28.032	2563
28.04	2460
28.048	2342.99999999995
28.056	2219
28.064	2095
28.072	1978
28.08	1869.99999999996
28.088	1775
28.096	1696
28.104	1631
28.112	1579.99999999998
28.12	1541
28.128	1514
28.136	1497
28.144	1488
28.152	1482
28.16	1478
28.168	1475
28.176	1473
28.184	1471
28.192	1469
28.2	1466
28.208	1461
28.216	1456
28.224	1449
28.232	1440
28.24	1426.99999999999
28.248	1411
28.256	1394
28.264	1376
28.272	1356.99999999999
28.28	1337
28.288	1316
28.296	1294
28.304	1271.99999999999
28.312	1252
28.32	1233
28.328	1214
28.336	1195.99999999999
28.344	1183
28.352	1178
28.36	1184
28.368	1209.00000000001
28.376	1259
28.384	1336
28.392	1440
28.4	1570.00000000006
28.408	1720
28.416	1882
28.424	2046
28.432	2200.00000000006
28.44	2334
28.448	2440
28.456	2512
28.464	2547
28.472	2547
28.48	2515
28.488	2454
28.496	2368.99999999996
28.504	2269
28.512	2155
28.52	2038
28.528	1928.99999999995
28.536	1830
28.544	1742
28.552	1667
28.56	1606.99999999998
28.568	1562
28.576	1529
28.584	1508
28.592	1496
28.6	1492
28.608	1493
28.616	1497
28.624	1502
28.632	1505
28.64	1507
28.648	1508
28.656	1507
28.664	1504
28.672	1499
28.68	1493
28.688	1485
28.696	1475
28.704	1462
28.712	1446
28.72	1428
28.728	1409
28.736	1391
28.744	1373
28.752	1355
28.76	1337
28.768	1319
28.776	1303
28.784	1288
28.792	1273
28.8	1262
28.808	1257
28.816	1263
28.824	1284
28.832	1324
28.84	1388
28.848	1477
28.856	1590
28.864	1722
28.872	1865
28.88	2011
28.888	2149
28.896	2270
28.904	2367
28.912	2435
28.92	2471
28.928	2476
28.936	2451
28.944	2400
28.952	2327
28.96	2239
28.968	2142
28.976	2042
28.984	1944
28.992	1852
29	1769
29.008	1699
29.016	1641.99999999998
29.024	1598
29.032	1567
29.04	1547
29.048	1536
29.056	1531
29.064	1530
29.072	1531
29.08	1534
29.088	1536
29.096	1537
29.104	1536
29.112	1533
29.12	1529
29.128	1522
29.136	1514
29.144	1506
29.152	1495
29.16	1483
29.168	1470
29.176	1453.99999999999
29.184	1437
29.192	1420
29.2	1402
29.208	1383.99999999999
29.216	1365
29.224	1347
29.232	1331
29.24	1316.99999999999
29.248	1304
29.256	1293
29.264	1288
29.272	1292
29.28	1311
29.288	1350
29.296	1413
29.304	1503.00000000004
29.312	1617
29.32	1751
29.328	1898
29.336	2048.00000000007
29.344	2191
29.352	2318
29.36	2421
29.368	2496.00000000002
29.376	2538
29.384	2546
29.392	2522
29.4	2471.99999999997
29.408	2401
29.416	2315
29.424	2219
29.432	2118.99999999996
29.44	2021
29.448	1929
29.456	1846
29.464	1773.99999999997
29.472	1714
29.48	1667
29.488	1634
29.496	1610.99999999999
29.504	1599
29.512	1595
29.52	1595
29.528	1599
29.536	1604
29.544	1607
29.552	1611
29.56	1614
29.568	1613
29.576	1611
29.584	1609
29.592	1605
29.6	1599
29.608	1591
29.616	1582
29.624	1570.99999999999
29.632	1559
29.64	1545
29.648	1529
29.656	1511.99999999999
29.664	1493
29.672	1475
29.68	1457
29.688	1438.99999999999
29.696	1414
29.704	1402
29.712	1395
29.72	1409
29.728	1441
29.736	1496
29.744	1631
29.752	1758
29.76	1903
29.768	2060
29.776	2218
29.784	2366
29.792	2495
29.8	2597
29.808	2666
29.816	2701
29.824	2706
29.832	2682
29.84	2632
29.848	2562
29.856	2476
29.864	2379
29.872	2225
29.88	2124
29.888	2030
29.896	1877
29.904	1819
29.912	1774
29.92	1729
29.928	1712
29.936	1703
29.944	1701
29.952	1703
29.96	1706
29.968	1707
29.976	1708
29.984	1708
29.992	1706
30	1701
30.008	1694
30.016	1684
30.024	1672
30.032	1657
30.04	1641
30.048	1624.99999999999
30.056	1608
30.064	1590
30.072	1572
30.08	1553.99999999999
30.088	1536
30.096	1518
30.104	1500
30.112	1480.99999999999
30.12	1463
30.128	1445
30.136	1428
30.144	1415
30.152	1411
30.16	1420
30.168	1447
30.176	1500.00000000003
30.184	1581
30.192	1691
30.2	1825
30.208	1974.00000000007
30.216	2128
30.224	2277
30.232	2411
30.24	2520.00000000004
30.248	2598
30.256	2645
30.264	2660
30.272	2642.99999999999
30.28	2599
30.288	2531
30.296	2445
30.304	2347.99999999996
30.312	2245
30.32	2141
30.328	2040
30.336	1944.99999999996
30.344	1860
30.352	1786
30.36	1724
30.368	1673.99999999998
30.376	1636
30.384	1609
30.392	1591
30.4	1580
30.408	1574
30.416	1571
30.424	1569
30.432	1566
30.44	1562
30.448	1556
30.456	1546
30.464	1533.99999999999
30.472	1521
30.48	1508
30.488	1494
30.496	1478.99999999999
30.504	1463
30.512	1445
30.52	1426
30.528	1402.99999999999
30.536	1378
30.544	1352
30.552	1325
30.56	1299.99999999999
30.568	1276
30.576	1252
30.584	1229
30.592	1207.99999999999
30.6	1190
30.608	1177
30.616	1172
30.624	1179
30.632	1204
30.64	1252
30.648	1329
30.656	1436.00000000005
30.664	1568
30.672	1719
30.68	1879
30.688	2036.00000000007
30.696	2180
30.704	2301
30.712	2391
30.72	2447
30.728	2468
30.736	2456
30.744	2415
30.752	2350
30.76	2266
30.768	2171
30.776	2071
30.784	1969
30.792	1871
30.8	1779
30.808	1695
30.816	1623
30.824	1564
30.832	1518
30.84	1485
30.848	1464
30.856	1452
30.864	1447
30.872	1448
30.88	1452
30.888	1457
30.896	1463
30.904	1468
30.912	1470
30.92	1470
30.928	1468
30.936	1463
30.944	1455
30.952	1446
30.96	1435
30.968	1422
30.976	1407
30.984	1393
30.992	1378
31	1360
31.008	1340
31.016	1317.99999999999
31.024	1297
31.032	1278
31.04	1259
31.048	1241.99999999999
31.056	1227
31.064	1216
31.072	1208
31.08	1207
31.088	1219
31.096	1248
31.104	1299
31.112	1376.00000000004
31.12	1477
31.128	1602
31.136	1743
31.144	1893.00000000007
31.152	2041
31.16	2175
31.168	2287
31.176	2372.00000000003
31.184	2425
31.192	2445
31.2	2433
31.208	2392.99999999998
31.216	2329
31.224	2248
31.232	2155
31.24	2056.99999999996
31.248	1960
31.256	1868
31.264	1784
31.272	1709.99999999997
31.28	1649
31.288	1602
31.296	1566
31.304	1540.99999999999
31.312	1526
31.32	1518
31.328	1517
31.336	1521
31.344	1527
31.352	1533
31.36	1537
31.368	1539
31.376	1539
31.384	1536
31.392	1529
31.4	1520
31.408	1510
31.416	1499
31.424	1487
31.432	1473.99999999999
31.44	1460
31.448	1445
31.456	1429
31.464	1411.99999999999
31.472	1394
31.48	1375
31.488	1356
31.496	1337.99999999999
31.504	1321
31.512	1306
31.52	1292
31.528	1282
31.536	1277
31.544	1280
31.552	1296
31.56	1331.00000000002
31.568	1391
31.576	1477
31.584	1589
31.592	1724.00000000006
31.6	1874
31.608	2030
31.616	2181
31.624	2317.00000000005
31.632	2428
31.64	2509
31.648	2558
31.656	2572
31.664	2554
31.672	2508
31.68	2440
31.688	2355.99999999996
31.696	2261
31.704	2162
31.712	2063
31.72	1969.99999999996
31.728	1884
31.736	1808
31.744	1744
31.752	1692
31.76	1653
31.768	1628
31.776	1614
31.784	1608
31.792	1608
31.8	1611
31.808	1616
31.816	1621
31.824	1626
31.832	1629
31.84	1629
31.848	1625
31.856	1619
31.864	1613
31.872	1606
31.88	1596
31.888	1585
31.896	1572
31.904	1556
31.912	1539
31.92	1522
31.928	1505
31.936	1489
31.944	1473
31.952	1457
31.96	1441
31.968	1426
31.976	1412
31.984	1399
31.992	1389
32	1385
32.008	1391
32.016	1414
32.024	1459
32.032	1532.00000000008
32.04	1634
32.048	1763
32.056	1916
32.064	2082
32.072	2249
32.08	2406
32.088	2542
32.096	2650.00000000008
32.104	2725
32.112	2766
32.12	2773
32.128	2751
32.136	2704
32.144	2637
32.152	2555
32.16	2462.99999999992
32.168	2368
32.176	2272
32.184	2181
32.192	2099
32.2	2026
32.208	1964
32.216	1914
32.224	1876.99999999997
32.232	1852
32.24	1835
32.248	1826
32.256	1822
32.264	1822
32.272	1824
32.28	1827
32.288	1830
32.296	1830
32.304	1828
32.312	1823
32.32	1816
32.328	1807
32.336	1796
32.344	1783
32.352	1769.99999999999
32.36	1756
32.368	1742
32.376	1727
32.384	1712
32.392	1696
32.4	1678
32.408	1658
32.416	1636.99999999998
32.424	1617
32.432	1599
32.44	1580
32.448	1560
32.456	1543
32.464	1532
32.472	1531
32.48	1548.00000000002
32.488	1589
32.496	1660
32.504	1762
32.512	1895
32.52	2052
32.528	2223
32.536	2398
32.544	2561.00000000013
32.552	2703
32.56	2816
32.568	2894
32.576	2910
32.584	2880
32.592	2842
32.6	2789
32.608	2720.99999999993
32.616	2642
32.624	2556
32.632	2466
32.64	2375
32.648	2289
32.656	2209
32.664	2137
32.672	2074.99999999995
32.68	2023
32.688	1981
32.696	1950
32.704	1929
32.712	1915
32.72	1906
32.728	1900
32.736	1895
32.744	1891
32.752	1885
32.76	1876
32.768	1865
32.776	1853
32.784	1839
32.792	1824
32.8	1807
32.808	1789
32.816	1769
32.824	1748
32.832	1728
32.84	1708
32.848	1686
32.856	1664
32.864	1643
32.872	1622
32.88	1598
32.888	1574
32.896	1551
32.904	1528
32.912	1505
32.92	1485
32.928	1467
32.936	1454
32.944	1451
32.952	1466
32.96	1503
32.968	1566
32.976	1655
32.984	1769
32.992	1902
33	2045
33.008	2188
33.016	2320
33.024	2434
33.032	2523.00000000006
33.04	2582
33.048	2608
33.056	2605
33.064	2577
33.072	2527
33.08	2459
33.088	2378
33.096	2288.99999999992
33.104	2198
33.112	2108
33.12	2024
33.128	1947
33.136	1879
33.144	1821
33.152	1774
33.16	1736.99999999997
33.168	1710
33.176	1691
33.184	1680
33.192	1674
33.2	1672
33.208	1673
33.216	1675
33.224	1676
33.232	1674
33.24	1669
33.248	1662
33.256	1652
33.264	1642
33.272	1631
33.28	1620
33.288	1608.99999999999
33.296	1597
33.304	1583
33.312	1568
33.32	1552
33.328	1535
33.336	1518
33.344	1500
33.352	1481.99999999998
33.36	1464
33.368	1446
33.376	1429
33.384	1414
33.392	1399
33.4	1386
33.408	1377
33.416	1377
33.424	1392
33.432	1425
33.44	1481
33.448	1562
33.456	1665
33.464	1787
33.472	1920
33.48	2055.00000000012
33.488	2182
33.496	2291
33.504	2377
33.512	2435
33.52	2465
33.528	2467
33.536	2443
33.544	2396.99999999995
33.552	2335
33.56	2261
33.568	2179
33.576	2095
33.584	2012
33.592	1934
33.6	1865
33.608	1805.99999999995
33.616	1757
33.624	1719
33.632	1691
33.64	1673
33.648	1663
33.656	1659
33.664	1659
33.672	1661
33.68	1664
33.688	1667
33.696	1670
33.704	1671
33.712	1670
33.72	1665
33.728	1659
33.736	1649.99999999999
33.744	1638
33.752	1625
33.76	1611
33.768	1596
33.776	1579
33.784	1561
33.792	1544
33.8	1528
33.808	1512
33.816	1496
33.824	1481
33.832	1468
33.84	1454
33.848	1440
33.856	1427
33.864	1416
33.872	1407
33.88	1404
33.888	1411
33.896	1434
33.904	1475
33.912	1540
33.92	1630
33.928	1743
33.936	1874
33.944	2013
33.952	2151
33.96	2278
33.968	2386
33.976	2468
33.984	2521
33.992	2546
34	2543
34.008	2516
34.016	2466
34.024	2400
34.032	2323.99999999993
34.04	2242
34.048	2157
34.056	2073
34.064	1994
34.072	1923
34.08	1862
34.088	1811
34.096	1771.99999999997
34.104	1744
34.112	1727
34.12	1719
34.128	1717
34.136	1720
34.144	1726
34.152	1731
34.16	1734
34.168	1735
34.176	1735
34.184	1732
34.192	1726
34.2	1719
34.208	1712
34.216	1702
34.224	1688.99999999999
34.232	1675
34.24	1659
34.248	1642
34.256	1624
34.264	1606
34.272	1588
34.28	1569
34.288	1550.99999999998
34.296	1534
34.304	1518
34.312	1504
34.32	1491
34.328	1480
34.336	1470
34.344	1464
34.352	1466
34.36	1479
34.368	1509
34.376	1561
34.384	1637
34.392	1739
34.4	1864
34.408	2004
34.416	2152.00000000013
34.424	2295
34.432	2424
34.44	2530
34.448	2607
34.456	2654
34.464	2670
34.472	2659
34.48	2624.99999999996
34.488	2573
34.496	2507
34.504	2431
34.512	2352
34.52	2271
34.528	2190
34.536	2113
34.544	2043.99999999994
34.552	1983
34.56	1934
34.568	1896
34.576	1869
34.584	1853
34.592	1845
34.6	1842
34.608	1843
34.616	1847
34.624	1826
34.632	1791
34.64	1773
34.648	1763
34.656	1756
34.664	1747
34.672	1737.99999999999
34.68	1728
34.688	1716
34.696	1703
34.704	1689
34.712	1673
34.72	1656
34.728	1638
34.736	1620.99999999998
34.744	1604
34.752	1587
34.76	1571
34.768	1555
34.776	1539
34.784	1523
34.792	1508
34.8	1491.99999999999
34.808	1479
34.816	1472
34.824	1474
34.832	1493
34.84	1535
34.848	1605
34.856	1706
34.864	1836
34.872	1989
34.88	2156
34.888	2323
34.896	2481
34.904	2619
34.912	2727
34.92	2803
34.928	2845
34.936	2854
34.944	2834
34.952	2789
34.96	2725
34.968	2647
34.976	2559
34.984	2466
34.992	2372
35	2282
35.008	2198
35.016	2121
35.024	2056
35.032	2001.99999999996
35.04	1958
35.048	1925
35.056	1901
35.064	1884
35.072	1873
35.08	1867
35.088	1864
35.096	1862
35.104	1861
35.112	1859
35.12	1853
35.128	1844
35.136	1833
35.144	1820
35.152	1804
35.16	1786.99999999998
35.168	1769
35.176	1750
35.184	1729
35.192	1708
35.2	1686
35.208	1663
35.216	1642
35.224	1620.99999999998
35.232	1601
35.24	1582
35.248	1563
35.256	1544
35.264	1524
35.272	1505
35.28	1488
35.288	1473.99999999999
35.296	1467
35.304	1473
35.312	1497
35.32	1546
35.328	1623
35.336	1730
35.344	1863
35.352	2014.00000000014
35.36	2170
35.368	2320
35.376	2453
35.384	2563
35.392	2643
35.4	2689
35.408	2702
35.416	2683.99999999998
35.424	2642
35.432	2582
35.44	2507
35.448	2423
35.456	2333
35.464	2239
35.472	2146
35.48	2056.99999999992
35.488	1975
35.496	1901
35.504	1837
35.512	1784
35.52	1742
35.528	1711
35.536	1689
35.544	1672.99999999999
35.552	1663
35.56	1658
35.568	1654
35.576	1650
35.584	1645
35.592	1637
35.6	1627
35.608	1614.99999999999
35.616	1600
35.624	1582
35.632	1562
35.64	1541
35.648	1521
35.656	1502
35.664	1482
35.672	1461.99999999998
35.68	1442
35.688	1422
35.696	1403
35.704	1385
35.712	1367
35.72	1349
35.728	1331
35.736	1312.99999999998
35.744	1295
35.752	1278
35.76	1263
35.768	1252
35.776	1246
35.784	1254
35.792	1282
35.8	1333.00000000005
35.808	1409
35.816	1511
35.824	1637
35.832	1779
35.84	1927
35.848	2069
35.856	2195
35.864	2298
35.872	2372
35.88	2415
35.888	2428
35.896	2414
35.904	2377
35.912	2320
35.92	2247
35.928	2165
35.936	2078
35.944	1988
35.952	1900
35.96	1819
35.968	1747
35.976	1685
35.984	1635
35.992	1596
36	1567
36.008	1548
36.016	1536
36.024	1530
36.032	1528
36.04	1529
36.048	1532
36.056	1534
36.064	1536
36.072	1537
36.08	1535
36.088	1529
36.096	1519.99999999999
36.104	1510
36.112	1498
36.12	1484
36.128	1469
36.136	1452
36.144	1433
36.152	1415
36.16	1395.99999999998
36.168	1376
36.176	1356
36.184	1336
36.192	1317
36.2	1301
36.208	1288
36.216	1276
36.224	1265.99999999999
36.232	1257
36.24	1251
36.248	1250
36.256	1258
36.264	1280
36.272	1320
36.28	1384
36.288	1472.00000000009
36.296	1581
36.304	1709
36.312	1848
36.32	1987
36.328	2117
36.336	2229
36.344	2317
36.352	2377.00000000004
36.36	2407
36.368	2409
36.376	2385
36.384	2338
36.392	2274
36.4	2198
36.408	2114
36.416	2026.99999999992
36.424	1942
36.432	1860
36.44	1784
36.448	1717
36.456	1661
36.464	1616
36.472	1582
36.48	1559.99999999999
36.488	1547
36.496	1542
36.504	1542
36.512	1545
36.52	1551
36.528	1557
36.536	1561
36.544	1562
36.552	1560
36.56	1556
36.568	1550
36.576	1542
36.584	1530
36.592	1516
36.6	1502
36.608	1485.99999999998
36.616	1468
36.624	1449
36.632	1430
36.64	1411
36.648	1394
36.656	1377
36.664	1360
36.672	1336.99999999998
36.68	1313
36.688	1294
36.696	1278
36.704	1265
36.712	1257
36.72	1256
36.728	1265
36.736	1291.00000000003
36.744	1338
36.752	1408
36.76	1504
36.768	1626
36.776	1768
36.784	1920
36.792	2072
36.8	2213.00000000012
36.808	2336
36.816	2433
36.824	2501
36.832	2538
36.84	2543
36.848	2522
36.856	2477
36.864	2413.99999999994
36.872	2337
36.88	2252
36.888	2162
36.896	2071
36.904	1984
36.912	1903
36.92	1832
36.928	1772
36.936	1725
36.944	1690
36.952	1665
36.96	1652
36.968	1647
36.976	1649
36.984	1656
36.992	1663
37	1669
37.008	1674
37.016	1676
37.024	1674
37.032	1668.99999999999
37.04	1661
37.048	1649
37.056	1635
37.064	1619
37.072	1603
37.08	1587
37.088	1570
37.096	1551.99999999998
37.104	1534
37.112	1517
37.12	1502
37.128	1489
37.136	1478
37.144	1466
37.152	1454
37.16	1441.99999999999
37.168	1429
37.176	1416
37.184	1406
37.192	1402
37.2	1409
37.208	1434
37.216	1481
37.224	1557.00000000008
37.232	1662
37.24	1793
37.248	1944
37.256	2105
37.264	2267
37.272	2417
37.28	2547
37.288	2650.00000000007
37.296	2720
37.304	2757
37.312	2763
37.32	2742
37.328	2698
37.336	2635
37.344	2559
37.352	2474.99999999992
37.36	2387
37.368	2298
37.376	2211
37.384	2131
37.392	2060
37.4	1999
37.408	1950
37.416	1910.99999999997
37.424	1883
37.432	1864
37.44	1851
37.448	1843
37.456	1838
37.464	1835
37.472	1833
37.48	1831
37.488	1829
37.496	1825
37.504	1819
37.512	1809
37.52	1795
37.528	1778
37.536	1758
37.544	1737.99999999998
37.552	1718
37.56	1698
37.568	1677
37.576	1657
37.584	1638
37.592	1619
37.6	1602
37.608	1584.99999999999
37.616	1569
37.624	1553
37.632	1537
37.64	1520
37.648	1502
37.656	1488
37.664	1479
37.672	1478
37.68	1489
37.688	1520
37.696	1575
37.704	1657
37.712	1766
37.72	1898
37.728	2046
37.736	2200.00000000014
37.744	2351
37.752	2488
37.76	2600
37.768	2684
37.776	2737
37.784	2759
37.792	2753
37.8	2721.99999999997
37.808	2669
37.816	2601
37.824	2521
37.832	2432
37.84	2339
37.848	2247
37.856	2158
37.864	2073.99999999993
37.872	1998
37.88	1932
37.888	1876
37.896	1831
37.904	1796
37.912	1769
37.92	1751
37.928	1739
37.936	1731
37.944	1725
37.952	1720
37.96	1715
37.968	1710
37.976	1700
37.984	1686
37.992	1670
38	1651
38.008	1631
38.016	1611
38.024	1590
38.032	1567.99999999998
38.04	1546
38.048	1524
38.056	1503
38.064	1482
38.072	1460
38.08	1438
38.088	1416
38.096	1393.99999999998
38.104	1373
38.112	1353
38.12	1332
38.128	1311
38.136	1293
38.144	1279
38.152	1271
38.16	1272
38.168	1287
38.176	1324
38.184	1385
38.192	1473
38.2	1585
38.208	1717
38.216	1861
38.224	2005.00000000012
38.232	2139
38.24	2254
38.248	2343
38.256	2404
38.264	2435
38.272	2438
38.28	2415
38.288	2371.99999999995
38.296	2311
38.304	2239
38.312	2159
38.32	2073
38.328	1985
38.336	1900
38.344	1821
38.352	1750.99999999994
38.36	1691
38.368	1642
38.376	1603
38.384	1575
38.392	1556
38.4	1543
38.408	1537
38.416	1535
38.424	1535
38.432	1536
38.44	1536
38.448	1535
38.456	1532
38.464	1525
38.472	1517
38.48	1507.99999999999
38.488	1496
38.496	1483
38.504	1469
38.512	1453
38.52	1435
38.528	1414
38.536	1392
38.544	1371.99999999998
38.552	1354
38.56	1337
38.568	1321
38.576	1305
38.584	1290
38.592	1276
38.6	1263
38.608	1251.99999999999
38.616	1242
38.624	1234
38.632	1231
38.64	1238
38.648	1258
38.656	1296
38.664	1356
38.672	1439.00000000008
38.68	1543
38.688	1663
38.696	1793
38.704	1926
38.712	2052
38.72	2181
38.728	2300
38.736	2382.00000000005
38.744	2428
38.752	2439
38.76	2421
38.768	2377
38.776	2314
38.784	2236
38.792	2148
38.8	2055.99999999992
38.808	1964
38.816	1875
38.824	1792
38.832	1717
38.84	1653
38.848	1600
38.856	1559
38.864	1529.99999999998
38.872	1510
38.88	1500
38.888	1497
38.896	1499
38.904	1504
38.912	1509
38.92	1514
38.928	1517
38.936	1518
38.944	1515
38.952	1509
38.96	1500
38.968	1487
38.976	1472
38.984	1455
38.992	1438
39	1420
39.008	1400
39.016	1378
39.024	1355
39.032	1332.99999999998
39.04	1312
39.048	1292
39.056	1274
39.064	1257
39.072	1242
39.08	1227
39.088	1213
39.096	1201.99999999999
39.104	1196
39.112	1199
39.12	1216
39.128	1251
39.136	1313
39.144	1405
39.152	1525
39.16	1669.00000000014
39.168	1831
39.176	2000
39.184	2163
39.192	2313
39.2	2439
39.208	2535
39.216	2600
39.224	2631
39.232	2630
39.24	2600
39.248	2546
39.256	2473
39.264	2386
39.272	2289
39.28	2189
39.288	2089.99999999991
39.296	1996
39.304	1910
39.312	1833
39.32	1768
39.328	1716
39.336	1677
39.344	1651
39.352	1635.99999999999
39.36	1629
39.368	1629
39.376	1633
39.384	1639
39.392	1645
39.4	1650
39.408	1653
39.416	1654
39.424	1651
39.432	1645
39.44	1636
39.448	1622
39.456	1605
39.464	1589
39.472	1572
39.48	1552.99999999998
39.488	1533
39.496	1512
39.504	1490
39.512	1469
39.52	1451
39.528	1434
39.536	1418
39.544	1403.99999999999
39.552	1390
39.56	1376
39.568	1363
39.576	1354
39.584	1353
39.592	1367
39.6	1401
39.608	1462.00000000007
39.616	1554
39.624	1677
39.632	1829
39.64	2000
39.648	2178
39.656	2355
39.664	2518
39.672	2657.00000000011
39.68	2769
39.688	2846
39.696	2887
39.704	2894
39.712	2870
39.72	2822
39.728	2753
39.736	2668.99999999992
39.744	2575
39.752	2476
39.76	2376
39.768	2280
39.776	2192
39.784	2113
39.792	2045
39.8	1989.99999999996
39.808	1947
39.816	1916
39.824	1895
39.832	1884
39.84	1879
39.848	1879
39.856	1880
39.864	1880
39.872	1879
39.88	1876
39.888	1870
39.896	1861
39.904	1850
39.912	1838
39.92	1824
39.928	1807.99999999998
39.936	1790
39.944	1769
39.952	1748
39.96	1726
39.968	1704
39.976	1682
39.984	1659
39.992	1635
40	1612
40.008	1592
40.016	1574
40.024	1556
40.032	1537.99999999998
40.04	1521
40.048	1506
40.056	1495
40.064	1503
40.072	1532
40.08	1588
40.088	1795
40.096	1945.00000000014
40.104	2117
40.112	2391
40.12	2567
40.128	2725
40.136	2856
40.144	2953
40.152	3015
40.16	3042
40.168	3036
40.176	3002
40.184	2946
40.192	2871
40.2	2783
40.208	2687
40.216	2585
40.224	2481.99999999991
40.232	2383
40.24	2249
40.248	2172
40.256	2106
40.264	2012
40.272	1983
40.28	1964
40.288	1945.99999999999
40.296	1940
40.304	1935
40.312	1929
40.32	1919
40.328	1906
40.336	1889
40.344	1869
40.352	1846.99999999998
40.36	1823
40.368	1796
40.376	1767
40.384	1740
40.392	1714
40.4	1688
40.408	1661
40.416	1632.99999999998
40.424	1605
40.432	1579
40.44	1554
40.448	1529
40.456	1503
40.464	1477
40.472	1453
40.48	1428.99999999998
40.488	1405
40.496	1383
40.504	1365
40.512	1355
40.52	1359
40.528	1384
40.536	1436
40.544	1517.00000000008
40.552	1628
40.56	1764
40.568	1917
40.576	2079
40.584	2240
40.592	2387
40.6	2512
40.608	2609.00000000007
40.616	2676
40.624	2710
40.632	2713
40.64	2689
40.648	2640
40.656	2570
40.664	2486
40.672	2391.99999999991
40.68	2292
40.688	2192
40.696	2097
40.704	2009
40.712	1930
40.72	1861
40.728	1802
40.736	1737.99999999994
40.744	1677
40.752	1638
40.76	1614
40.768	1600
40.776	1593
40.784	1591
40.792	1590
40.8	1588
40.808	1584
40.816	1578
40.824	1571
40.832	1562
40.84	1549
40.848	1535
40.856	1519
40.864	1500.99999999998
40.872	1482
40.88	1462
40.888	1441
40.896	1421
40.904	1402
40.912	1381
40.92	1359
40.928	1335.99999999998
40.936	1313
40.944	1293
40.952	1275
40.96	1259
40.968	1245
40.976	1233
40.984	1225
40.992	1223
41	1230
41.008	1252
41.016	1295
41.024	1361
41.032	1451.00000000009
41.04	1564
41.048	1693
41.056	1832
41.064	1973
41.072	2109
41.08	2228
41.088	2323
41.096	2393.00000000005
41.104	2433
41.112	2442
41.12	2423
41.128	2382
41.136	2322
41.144	2249
41.152	2167
41.16	2079.99999999992
41.168	1992
41.176	1906
41.184	1826
41.192	1754
41.2	1691
41.208	1639
41.216	1599
41.224	1569.99999999998
41.232	1550
41.24	1539
41.248	1534
41.256	1531
41.264	1531
41.272	1532
41.28	1532
41.288	1531
41.296	1529
41.304	1525
41.312	1519
41.32	1511
41.328	1500
41.336	1486
41.344	1471
41.352	1453.99999999998
41.36	1434
41.368	1415
41.376	1397
41.384	1378
41.392	1358
41.4	1338
41.408	1319
41.416	1302.99999999999
41.424	1289
41.432	1276
41.44	1263
41.448	1253
41.456	1246
41.464	1242
41.472	1246
41.48	1264.00000000002
41.488	1302
41.496	1363
41.504	1449
41.512	1560
41.52	1691
41.528	1836
41.536	1986
41.544	2133.00000000013
41.552	2269
41.56	2384
41.568	2473
41.576	2534
41.584	2563
41.592	2562
41.6	2533
41.608	2480.99999999995
41.616	2409
41.624	2323
41.632	2229
41.64	2134
41.648	2039
41.656	1949
41.664	1869
41.672	1798.99999999994
41.68	1740
41.688	1694
41.696	1661
41.704	1639
41.712	1625
41.72	1618
41.728	1616
41.736	1618
41.744	1622
41.752	1625
41.76	1627
41.768	1627
41.776	1624
41.784	1618
41.792	1611
41.8	1601.99999999999
41.808	1589
41.816	1576
41.824	1561
41.832	1545
41.84	1528
41.848	1509
41.856	1490
41.864	1469.99999999998
41.872	1449
41.88	1430
41.888	1413
41.896	1397
41.904	1381
41.912	1366
41.92	1352
41.928	1339.99999999999
41.936	1334
41.944	1339
41.952	1360
41.96	1401
41.968	1467
41.976	1560
41.984	1680
41.992	1822
42	1979
42.008	2143
42.016	2303
42.024	2451
42.032	2577.0000000001
42.04	2676
42.048	2745
42.056	2784
42.064	2793
42.072	2774
42.08	2731
42.088	2669
42.096	2591.99999999993
42.104	2505
42.112	2413
42.12	2320
42.128	2231
42.136	2149
42.144	2076
42.152	2014
42.16	1960.99999999996
42.168	1919
42.176	1888
42.184	1867
42.192	1855
42.2	1848
42.208	1844
42.216	1842
42.224	1840
42.232	1837
42.24	1833
42.248	1826
42.256	1816
42.264	1804
42.272	1790
42.28	1775
42.288	1759.99999999999
42.296	1744
42.304	1727
42.312	1711
42.32	1695
42.328	1678
42.336	1661
42.344	1645
42.352	1628.99999999999
42.36	1612
42.368	1594
42.376	1577
42.384	1560
42.392	1542
42.4	1526
42.408	1515
42.416	1513
42.424	1524
42.432	1553
42.44	1607
42.448	1692
42.456	1808
42.464	1949
42.472	2110
42.48	2281.00000000015
42.488	2451
42.496	2609
42.504	2747
42.512	2858
42.52	2937
42.528	2985
42.536	3001
42.544	2988.99999999998
42.552	2952
42.56	2893
42.568	2819
42.576	2734
42.584	2642
42.592	2546
42.6	2451
42.608	2361.99999999992
42.616	2281
42.624	2211
42.632	2151
42.64	2102
42.648	2063
42.656	2036
42.664	2018
42.672	2005.99999999999
42.68	1997
42.688	1990
42.696	1983
42.704	1975
42.712	1964
42.72	1949
42.728	1931
42.736	1910.99999999998
42.744	1890
42.752	1868
42.76	1845
42.768	1821
42.776	1797
42.784	1763
42.792	1725
42.8	1694.99999999997
42.808	1668
42.816	1643
42.824	1621
42.832	1599
42.84	1576
42.848	1552
42.856	1529
42.864	1506.99999999998
42.872	1485
42.88	1465
42.888	1449
42.896	1441
42.904	1447
42.912	1471
42.92	1518
42.928	1592.00000000008
42.936	1691
42.944	1812
42.952	1948
42.96	2092
42.968	2235
42.976	2368
42.984	2481
42.992	2570.00000000006
43	2631
43.008	2664
43.016	2668
43.024	2645
43.032	2600.99999999995
43.04	2539
43.048	2464
43.056	2381
43.064	2294
43.072	2204
43.08	2117
43.088	2037
43.096	1963.99999999994
43.104	1899
43.112	1845
43.12	1801
43.128	1767
43.136	1742
43.144	1722
43.152	1708
43.16	1698.99999999999
43.168	1692
43.176	1684
43.184	1676
43.192	1668
43.2	1659
43.208	1649
43.216	1638
43.224	1625.99999999999
43.232	1614
43.24	1601
43.248	1587
43.256	1572
43.264	1556
43.272	1538
43.28	1520
43.288	1502.99999999998
43.296	1485
43.304	1466
43.312	1445
43.32	1425
43.328	1406
43.336	1388
43.344	1372
43.352	1356.99999999999
43.36	1345
43.368	1337
43.376	1336
43.384	1346
43.392	1371
43.4	1416
43.408	1483
43.416	1571.00000000009
43.424	1677
43.432	1797
43.44	1924
43.448	2050
43.456	2168
43.464	2270
43.472	2351
43.48	2408.00000000004
43.488	2438
43.496	2442
43.504	2421
43.512	2378
43.52	2316
43.528	2242
43.536	2161
43.544	2076.99999999993
43.552	1993
43.56	1913
43.568	1840
43.576	1776
43.584	1723
43.592	1681
43.6	1648
43.608	1624.99999999999
43.616	1612
43.624	1604
43.632	1600
43.64	1598
43.648	1597
43.656	1597
43.664	1595
43.672	1591
43.68	1585
43.688	1577
43.696	1568
43.704	1557
43.712	1546
43.72	1532
43.728	1518
43.736	1504.99999999999
43.744	1491
43.752	1475
43.76	1458
43.768	1440
43.776	1422
43.784	1405
43.792	1390
43.8	1375.99999999999
43.808	1362
43.816	1349
43.824	1338
43.832	1328
43.84	1323
43.848	1326
43.856	1339
43.864	1367.00000000003
43.872	1415
43.88	1485
43.888	1575
43.896	1684
43.904	1807
43.912	1939
43.92	2072
43.928	2198.00000000011
43.936	2309
43.944	2399
43.952	2462
43.96	2496
43.968	2503
43.976	2484
43.984	2441
43.992	2379.99999999994
44	2305
44.008	2222
44.016	2134
44.024	2047
44.032	1963.99999999993
44.04	1885
44.048	1817
44.056	1760
44.064	1713
44.072	1677
44.08	1651
44.088	1635
44.096	1625.99999999999
44.104	1621
44.112	1620
44.12	1620
44.128	1619
44.136	1617
44.144	1613
44.152	1609
44.16	1603.99999999999
44.168	1595
44.176	1586
44.184	1576
44.192	1564
44.2	1550
44.208	1534
44.216	1518
44.224	1501.99999999999
44.232	1486
44.24	1470
44.248	1453
44.256	1436
44.264	1418
44.272	1401
44.28	1386
44.288	1371.99999999999
44.296	1360
44.304	1351
44.312	1349
44.32	1357
44.328	1378
44.336	1416
44.344	1476
44.352	1560.00000000008
44.36	1667
44.368	1794
44.376	1936
44.384	2085
44.392	2230
44.4	2363
44.408	2477
44.416	2565.00000000006
44.424	2625
44.432	2656
44.44	2658
44.448	2635
44.456	2591
44.464	2528
44.472	2451
44.48	2366.99999999992
44.488	2279
44.496	2191
44.504	2106
44.512	2028
44.52	1960
44.528	1903
44.536	1859
44.544	1825.99999999998
44.552	1802
44.56	1786
44.568	1777
44.576	1774
44.584	1774
44.592	1776
44.6	1777
44.608	1777
44.616	1775
44.624	1770
44.632	1762
44.64	1752
44.648	1741
44.656	1730
44.664	1718
44.672	1705.99999999999
44.68	1692
44.688	1677
44.696	1662
44.704	1645
44.712	1629
44.72	1615
44.728	1602
44.736	1588.99999999999
44.744	1577
44.752	1563
44.76	1548
44.768	1533
44.776	1522
44.784	1517
44.792	1525
44.8	1551.00000000003
44.808	1598
44.816	1669
44.824	1767
44.832	1903
44.84	2075
44.848	2261
44.856	2448
44.864	2626.00000000015
44.872	2786
44.88	2917
44.888	3014
44.896	3074
44.904	3099
44.912	3091
44.92	3051
44.928	2986.99999999994
44.936	2905
44.944	2807
44.952	2699
44.96	2588
44.968	2478
44.976	2375
44.984	2281
44.992	2196.99999999993
45	2128
45.008	2072
45.016	2027
45.024	1995
45.032	1973.99999999998
45.04	1960
45.048	1951
45.056	1945
45.064	1939
45.072	1932
45.08	1922
45.088	1909
45.096	1894.99999999999
45.104	1878
45.112	1860
45.12	1844
45.128	1828
45.136	1810
45.144	1790
45.152	1768
45.16	1743.99999999998
45.168	1720
45.176	1695
45.184	1670
45.192	1643
45.2	1616
45.208	1590
45.216	1564
45.224	1537.99999999998
45.232	1512
45.24	1486
45.248	1465
45.256	1453
45.264	1453
45.272	1474
45.28	1523
45.288	1604.00000000008
45.296	1715
45.304	1855
45.312	2018
45.32	2194
45.328	2372
45.336	2540
45.344	2688
45.352	2808.00000000009
45.36	2895
45.368	2947
45.376	2963
45.384	2946
45.392	2899
45.4	2828
45.408	2737
45.416	2632.9999999999
45.424	2522
45.432	2408
45.44	2294
45.448	2185
45.456	2087
45.464	2001
45.472	1928
45.48	1867.99999999995
45.488	1820
45.496	1782
45.504	1753
45.512	1732
45.52	1716
45.528	1704
45.536	1694
45.544	1682.99999999999
45.552	1671
45.56	1658
45.568	1643
45.576	1627
45.584	1609
45.592	1591
45.6	1574
45.608	1555.99999999998
45.616	1538
45.624	1520
45.632	1499
45.64	1476
45.648	1452
45.656	1428
45.664	1404
45.672	1378.99999999998
45.68	1353
45.688	1327
45.696	1303
45.704	1281
45.712	1260
45.72	1241
45.728	1229
45.736	1227
45.744	1240
45.752	1272
45.76	1329
45.768	1416
45.776	1529
45.784	1665
45.792	1819
45.8	1983.00000000014
45.808	2144
45.816	2290
45.824	2415
45.832	2512
45.84	2573
45.848	2598
45.856	2588
45.864	2547.99999999996
45.872	2483
45.88	2398
45.888	2297
45.896	2189
45.904	2081
45.912	1976
45.92	1876
45.928	1785.99999999993
45.936	1708
45.944	1644
45.952	1594
45.96	1555
45.968	1527
45.976	1509
45.984	1497
45.992	1489
46	1487
46.008	1486
46.016	1483
46.024	1480
46.032	1473.99999999999
46.04	1466
46.048	1456
46.056	1445.99999999999
46.064	1435
46.072	1422
46.08	1407
46.088	1392
46.096	1373.99999999998
46.104	1355
46.112	1337
46.12	1317
46.128	1297
46.136	1279
46.144	1260
46.152	1239
46.16	1219.99999999998
46.168	1201
46.176	1184
46.184	1171
46.192	1164
46.2	1163
46.208	1174
46.216	1200
46.224	1245.00000000005
46.232	1315
46.24	1411
46.248	1531
46.256	1673
46.264	1830
46.272	1992
46.28	2148
46.288	2287.00000000011
46.296	2402
46.304	2485
46.312	2533
46.32	2544
46.328	2520
46.336	2467
46.344	2391
46.352	2296.99999999991
46.36	2192
46.368	2083
46.376	1977
46.384	1875
46.392	1781
46.4	1699
46.408	1630
46.416	1574.99999999996
46.424	1533
46.432	1502
46.44	1481
46.448	1469
46.456	1463
46.464	1460
46.472	1459
46.48	1459
46.488	1458
46.496	1455
46.504	1450
46.512	1443
46.52	1435
46.528	1425
46.536	1413
46.544	1399.99999999999
46.552	1385
46.56	1370
46.568	1355
46.576	1340
46.584	1323
46.592	1306
46.6	1288
46.608	1267.99999999998
46.616	1247
46.624	1227
46.632	1206
46.64	1186
46.648	1171
46.656	1163
46.664	1164
46.672	1177.00000000002
46.68	1209
46.688	1265
46.696	1349
46.704	1461
46.712	1600
46.72	1761
46.728	1936
46.736	2113.00000000015
46.744	2282
46.752	2432
46.76	2555
46.768	2646
46.776	2701
46.784	2719
46.792	2701
46.8	2650.99999999995
46.808	2575
46.816	2480
46.824	2371
46.832	2256
46.84	2140
46.848	2029
46.856	1926
46.864	1833.99999999993
46.872	1758
46.88	1703
46.888	1667
46.896	1642
46.904	1625
46.912	1615
46.92	1610
46.928	1607
46.936	1606
46.944	1605
46.952	1605
46.96	1605
46.968	1605
46.976	1604
46.984	1600
46.992	1595
47	1589
47.008	1581
47.016	1572
47.024	1561
47.032	1548.99999999999
47.04	1534
47.048	1518
47.056	1502.99999999999
47.064	1488
47.072	1472
47.08	1456
47.088	1440
47.096	1423.99999999999
47.104	1410
47.112	1399
47.12	1392
47.128	1392
47.136	1404
47.144	1433
47.152	1485
47.16	1561.00000000008
47.168	1661
47.176	1783
47.184	1921
47.192	2067
47.2	2213
47.208	2349
47.216	2467
47.224	2563.00000000007
47.232	2633
47.24	2674
47.248	2685
47.256	2670
47.264	2630
47.272	2568
47.28	2491
47.288	2404.99999999992
47.296	2313
47.304	2221
47.312	2133
47.32	2051
47.328	1977
47.336	1914
47.344	1863
47.352	1823.99999999997
47.36	1794
47.368	1772
47.376	1757
47.384	1748
47.392	1742
47.4	1739
47.408	1737
47.416	1733
47.424	1727
47.432	1719
47.44	1710
47.448	1699
47.456	1687
47.464	1675
47.472	1662
47.48	1647.99999999999
47.488	1635
47.496	1622
47.504	1608
47.512	1593
47.52	1576
47.528	1557
47.536	1538
47.544	1518.99999999998
47.552	1502
47.56	1485
47.568	1469
47.576	1454
47.584	1441
47.592	1435
47.6	1441
47.608	1463.00000000003
47.616	1507
47.624	1577
47.632	1672
47.64	1790
47.648	1926
47.656	2072
47.664	2219
47.672	2357.00000000011
47.68	2477
47.688	2574
47.696	2645
47.704	2688
47.712	2701
47.72	2687
47.728	2646
47.736	2581.99999999994
47.744	2501
47.752	2408
47.76	2308
47.768	2207
47.776	2109
47.784	2017
47.792	1933
47.8	1858.99999999994
47.808	1798
47.816	1747
47.824	1706
47.832	1674
47.84	1649
47.848	1630
47.856	1615
47.864	1603.99999999999
47.872	1594
47.88	1584
47.888	1573
47.896	1562
47.904	1549
47.912	1535
47.92	1521
47.928	1507.99999999999
47.936	1494
47.944	1479
47.952	1463
47.96	1445
47.968	1427
47.976	1409
47.984	1390
47.992	1368.99999999998
48	1347
48.008	1324
48.016	1300
48.024	1276
48.032	1252.99999999998
48.04	1232
48.048	1214
48.056	1203
48.064	1200
48.072	1209
48.08	1238
48.088	1287
48.096	1360.00000000007
48.104	1457
48.112	1575
48.12	1707.00000000012
48.128	1846
48.136	1983
48.144	2110
48.152	2218
48.16	2302.00000000006
48.168	2358
48.176	2384
48.184	2380
48.192	2348
48.2	2292
48.208	2217
48.216	2129
48.224	2032.99999999991
48.232	1934
48.24	1837
48.248	1747
48.256	1665
48.264	1595
48.272	1538
48.28	1492
48.288	1456.99999999997
48.296	1431
48.304	1413
48.312	1403
48.32	1398
48.328	1395
48.336	1394
48.344	1393
48.352	1393
48.36	1392
48.368	1389
48.376	1385
48.384	1379
48.392	1371
48.4	1361
48.408	1349
48.416	1334.99999999999
48.424	1319
48.432	1301
48.44	1282
48.448	1262
48.456	1241
48.464	1221
48.472	1203
48.48	1185.99999999998
48.488	1168
48.496	1151
48.504	1137
48.512	1125
48.52	1117
48.528	1116
48.536	1127
48.544	1155.00000000003
48.552	1202
48.56	1271
48.568	1363
48.576	1474
48.584	1599
48.592	1734
48.6	1869
48.608	1994.0000000001
48.616	2100
48.624	2183
48.632	2239
48.64	2265
48.648	2260
48.656	2227
48.664	2172
48.672	2097.99999999993
48.68	2012
48.688	1919
48.696	1825
48.704	1735
48.712	1651
48.72	1575
48.728	1510
48.736	1456.99999999996
48.744	1417
48.752	1388
48.76	1368
48.768	1355
48.776	1349
48.784	1348
48.792	1348
48.8	1347
48.808	1345
48.816	1341
48.824	1336
48.832	1329
48.84	1321
48.848	1312
48.856	1303
48.864	1294.99999999999
48.872	1285
48.88	1274
48.888	1260
48.896	1244
48.904	1227
48.912	1209
48.92	1190
48.928	1213.00000000003
48.936	1258
48.944	1271
48.952	1271
48.96	1266
48.968	1259
48.976	1254
48.984	1254
48.992	1261.00000000001
49	1280
49.008	1316
49.016	1372
49.024	1450
49.032	1549.0000000001
49.04	1666
49.048	1795
49.056	1929.00000000012
49.064	2058
49.072	2174
49.08	2271
49.088	2344
49.096	2388.00000000002
49.104	2403
49.112	2389
49.12	2348.99999999996
49.128	2288
49.136	2209
49.144	2119
49.152	2023
49.16	1926.99999999992
49.168	1836
49.176	1754
49.184	1683
49.192	1625
49.2	1580
49.208	1545
49.216	1521
49.224	1504.99999999999
49.232	1495
49.24	1490
49.248	1488
49.256	1489
49.264	1491
49.272	1492
49.28	1492
49.288	1491
49.296	1488
49.304	1483
49.312	1477
49.32	1468
49.328	1457
49.336	1446
49.344	1432
49.352	1415.99999999999
49.36	1400
49.368	1383
49.376	1366
49.384	1348
49.392	1330
49.4	1314
49.408	1298
49.416	1282.99999999999
49.424	1271
49.432	1261
49.44	1257
49.448	1261
49.456	1276
49.464	1307
49.472	1360
49.48	1436.00000000008
49.488	1536
49.496	1657
49.504	1793
49.512	1935
49.52	2075
49.528	2205
49.536	2315
49.544	2399.00000000006
49.552	2455
49.56	2482
49.568	2479
49.576	2450
49.584	2397
49.592	2326
49.6	2243
49.608	2152.99999999992
49.616	2060
49.624	1969
49.632	1883
49.64	1805
49.648	1738
49.656	1682
49.664	1638
49.672	1605.99999999998
49.68	1584
49.688	1570
49.696	1563
49.704	1561
49.712	1561
49.72	1562
49.728	1562
49.736	1560
49.744	1558
49.752	1556
49.76	1553
49.768	1549
49.776	1544
49.784	1537
49.792	1528
49.8	1516.99999999999
49.808	1505
49.816	1490
49.824	1473
49.832	1456
49.84	1437
49.848	1419
49.856	1400
49.864	1378.99999999998
49.872	1361
49.88	1345
49.888	1329
49.896	1316
49.904	1310
49.912	1317
49.92	1342
49.928	1387.00000000005
49.936	1457
49.944	1553
49.952	1673
49.96	1813
49.968	1965
49.976	2116
49.984	2256
49.992	2378.0000000001
50	2475
50.008	2544
50.016	2583
50.024	2592
50.032	2570.99999999997
50.04	2525
50.048	2457
50.056	2372.99999999992
50.064	2278
50.072	2177
50.08	2077
50.088	1982
50.096	1894.99999999993
50.104	1819
50.112	1755
50.12	1702.99999999996
50.128	1662
50.136	1630
50.144	1607
50.152	1592
50.16	1580.99999999999
50.168	1575
50.176	1570
50.184	1564
50.192	1559
50.2	1555
50.208	1549
50.216	1541
50.224	1531.99999999999
50.232	1520
50.24	1505
50.248	1489
50.256	1472
50.264	1453
50.272	1435
50.28	1416
50.288	1394.99999999998
50.296	1374
50.304	1352
50.312	1330
50.32	1308
50.328	1286
50.336	1264
50.344	1243
50.352	1223.99999999998
50.36	1208
50.368	1200
50.376	1205
50.384	1228
50.392	1273
50.4	1345
50.408	1443
50.416	1563.00000000011
50.424	1700
50.432	1918
50.44	2056
50.448	2180
50.456	2352
50.464	2392
50.472	2400
50.48	2361.99999999996
50.488	2302
50.496	2223
50.504	2130
50.512	2027
50.52	1922
50.528	1819
50.536	1722
50.544	1632.99999999993
50.552	1557
50.56	1494
50.568	1443
50.576	1393
50.584	1372
50.592	1360
50.6	1352
50.608	1353
50.616	1355
50.624	1357
50.632	1356
50.64	1353
50.648	1348
50.656	1340
50.664	1332
50.672	1321.99999999999
50.68	1310
50.688	1298
50.696	1285
50.704	1271
50.712	1256
50.72	1238
50.728	1218
50.736	1197.99999999998
50.744	1179
50.752	1161
50.76	1143
50.768	1127
50.776	1113
50.784	1102
50.792	1094
50.8	1092
50.808	1101
50.816	1126
50.824	1169
50.832	1235
50.84	1326
50.848	1438
50.856	1566
50.864	1704.00000000012
50.872	1843
50.88	1973
50.888	2086
50.896	2175
50.904	2235
50.912	2263
50.92	2261
50.928	2231.99999999997
50.936	2178
50.944	2156
50.952	2145
50.96	2085
50.968	2002
50.976	1912
50.984	1823
50.992	1740.99999999993
51	1670
51.008	1611
51.016	1565
51.024	1532
51.032	1509.99999999999
51.04	1498
51.048	1494
51.056	1494
51.064	1497
51.072	1504
51.08	1510
51.088	1514
51.096	1516
51.104	1516
51.112	1516
51.12	1515
51.128	1512
51.136	1505
51.144	1497
51.152	1487
51.16	1472.99999999999
51.168	1457
51.176	1440
51.184	1420.99999999998
51.192	1403
51.2	1386
51.208	1368
51.216	1349
51.224	1331.99999999999
51.232	1317
51.24	1305
51.248	1296
51.256	1291
51.264	1295
51.272	1311
51.28	1345
51.288	1403.00000000006
51.296	1485
51.304	1591
51.312	1719
51.32	1861
51.328	2009
51.336	2152
51.344	2280
51.352	2387.00000000008
51.36	2467
51.368	2516
51.376	2531
51.384	2514
51.392	2468
51.4	2399
51.408	2313
51.416	2215.99999999991
51.424	2114
51.432	2013
51.44	1918
51.448	1831
51.456	1755
51.464	1692
51.472	1643
51.48	1607.99999999998
51.488	1585
51.496	1573
51.504	1569
51.512	1571
51.52	1575
51.528	1579
51.536	1583
51.544	1586
51.552	1586
51.56	1584
51.568	1582
51.576	1579
51.584	1574
51.592	1567
51.6	1559
51.608	1547.99999999999
51.616	1535
51.624	1522
51.632	1507
51.64	1491
51.648	1474
51.656	1456
51.664	1437
51.672	1417.99999999998
51.68	1399
51.688	1382
51.696	1365
51.704	1352
51.712	1345
51.72	1347
51.728	1361
51.736	1392.00000000003
51.744	1445
51.752	1526
51.76	1634
51.768	1765
51.776	1913
51.784	2071
51.792	2228
51.8	2372.00000000012
51.808	2495
51.816	2589
51.824	2649
51.832	2675
51.84	2668
51.848	2632
51.856	2571
51.864	2489.99999999992
51.872	2396
51.88	2295
51.888	2192
51.896	2091
51.904	1998
51.912	1914
51.92	1842
51.928	1784.99999999996
51.936	1743
51.944	1713
51.952	1695
51.96	1688
51.968	1688
51.976	1692
51.984	1698
51.992	1704
52	1709
52.008	1714
52.016	1717
52.024	1719
52.032	1719
52.04	1717
52.048	1714
52.056	1707.99999999999
52.064	1700
52.072	1689
52.08	1675
52.088	1660
52.096	1643.99999999999
52.104	1628
52.112	1612
52.12	1596.99999999999
52.128	1583
52.136	1568
52.144	1552
52.152	1537
52.16	1525.99999999999
52.168	1520
52.176	1520
52.184	1530.00000000001
52.192	1557
52.2	1608
52.208	1686
52.216	1792
52.224	1925.00000000013
52.232	2079
52.24	2243
52.248	2406
52.256	2555
52.264	2683
52.272	2783
52.28	2850
52.288	2882
52.296	2882
52.304	2854
52.312	2801
52.32	2728
52.328	2639
52.336	2540
52.344	2435
52.352	2329.99999999991
52.36	2229
52.368	2138
52.376	2057
52.384	1990
52.392	1936
52.4	1894
52.408	1864
52.416	1844.99999999999
52.424	1835
52.432	1830
52.44	1827
52.448	1827
52.456	1829
52.464	1831
52.472	1831
52.48	1829
52.488	1826
52.496	1821
52.504	1814
52.512	1804
52.52	1793
52.528	1781
52.536	1767
52.544	1751.99999999999
52.552	1736
52.56	1719
52.568	1702
52.576	1684
52.584	1665
52.592	1647
52.6	1630
52.608	1610.99999999998
52.616	1592
52.624	1574
52.632	1559
52.64	1552
52.648	1558
52.656	1585
52.664	1638
52.672	1719.00000000008
52.68	1832
52.688	1971
52.696	2127
52.704	2290
52.712	2448
52.72	2589
52.728	2707
52.736	2794.00000000006
52.744	2845
52.752	2863
52.76	2848
52.768	2802
52.776	2732
52.784	2644
52.792	2543
52.8	2435.9999999999
52.808	2326
52.816	2218
52.824	2117
52.832	2027
52.84	1949
52.848	1882
52.856	1826
52.864	1782.99999999997
52.872	1752
52.88	1729
52.888	1713
52.896	1703
52.904	1697
52.912	1692
52.92	1687
52.928	1683
52.936	1678
52.944	1670
52.952	1661
52.96	1650
52.968	1637
52.976	1625
52.984	1611
52.992	1579.99999999997
53	1540
53.008	1511
53.016	1487
53.024	1465
53.032	1443.99999999998
53.04	1424
53.048	1405
53.056	1385.99999999998
53.064	1365
53.072	1344
53.08	1323
53.088	1304
53.096	1286.99999999999
53.104	1276
53.112	1276
53.12	1294.00000000002
53.128	1335
53.136	1403
53.144	1500
53.152	1623
53.16	1765.00000000013
53.168	1917
53.176	2070
53.184	2213.00000000012
53.192	2337
53.2	2434
53.208	2499
53.216	2531
53.224	2530
53.232	2499
53.24	2444
53.248	2368.99999999993
53.256	2282
53.264	2186
53.272	2087
53.28	1991
53.288	1900.99999999992
53.296	1820
53.304	1748
53.312	1688
53.32	1640
53.328	1603
53.336	1578
53.344	1561
53.352	1550.99999999999
53.36	1547
53.368	1547
53.376	1549
53.384	1553
53.392	1557
53.4	1559
53.408	1559
53.416	1557
53.424	1554
53.432	1549
53.44	1541
53.448	1530
53.456	1518
53.464	1504
53.472	1488
53.48	1472.99999999999
53.488	1459
53.496	1445
53.504	1431
53.512	1416
53.52	1400
53.528	1383
53.536	1366
53.544	1349.99999999999
53.552	1336
53.56	1324
53.568	1318
53.576	1322
53.584	1340
53.592	1378
53.6	1439
53.608	1525.00000000009
53.616	1634
53.624	1762
53.632	1903
53.64	2048
53.648	2186
53.656	2307
53.664	2403
53.672	2469.00000000004
53.68	2503
53.688	2505
53.696	2478
53.704	2426
53.712	2356
53.72	2273
53.728	2182
53.736	2087.99999999992
53.744	1996
53.752	1910
53.76	1833
53.768	1766
53.776	1711
53.784	1671
53.792	1641
53.8	1619.99999999999
53.808	1608
53.816	1602
53.824	1601
53.832	1604
53.84	1607
53.848	1611
53.856	1614
53.864	1614
53.872	1612
53.88	1608
53.888	1603
53.896	1597
53.904	1588
53.912	1577
53.92	1566
53.928	1553.99999999999
53.936	1542
53.944	1529
53.952	1515
53.96	1500
53.968	1482
53.976	1464
53.984	1448
53.992	1430.99999999998
54	1414
54.008	1398
54.016	1384
54.024	1372
54.032	1367
54.04	1375
54.048	1399
54.056	1444.00000000005
54.064	1513
54.072	1609
54.08	1730
54.088	1869
54.096	2018.00000000013
54.104	2166
54.112	2305
54.12	2425.00000000009
54.128	2517
54.136	2578
54.144	2606
54.152	2603
54.16	2571.99999999996
54.168	2516
54.176	2441
54.184	2353.99999999992
54.192	2261
54.2	2167
54.208	2075
54.216	1989
54.224	1911.99999999994
54.232	1847
54.24	1794
54.248	1751.99999999997
54.256	1723
54.264	1705
54.272	1695
54.28	1691
54.288	1691
54.296	1693
54.304	1696
54.312	1699
54.32	1702
54.328	1702
54.336	1700
54.344	1697
54.352	1691.99999999999
54.36	1683
54.368	1674
54.376	1664
54.384	1654
54.392	1643
54.4	1630
54.408	1615
54.416	1598.99999999999
54.424	1583
54.432	1569
54.44	1555
54.448	1541
54.456	1527
54.464	1513
54.472	1499
54.48	1486.99999999999
54.488	1479
54.496	1477
54.504	1488
54.512	1516
54.52	1568
54.528	1648
54.536	1756
54.544	1890.00000000013
54.552	2044
54.56	2206
54.568	2363
54.576	2506
54.584	2625
54.592	2715
54.6	2771
54.608	2794
54.616	2786
54.624	2751
54.632	2696
54.64	2624
54.648	2540
54.656	2450
54.664	2357
54.672	2264.99999999992
54.68	2178
54.688	2099
54.696	2031
54.704	1975
54.712	1932
54.72	1900
54.728	1879
54.736	1867.99999999999
54.744	1863
54.752	1862
54.76	1862
54.768	1864
54.776	1866
54.784	1867
54.792	1866
54.8	1862
54.808	1857
54.816	1850
54.824	1840
54.832	1829
54.84	1816
54.848	1800
54.856	1785
54.864	1769.99999999999
54.872	1753
54.88	1737
54.888	1720
54.896	1701
54.904	1684
54.912	1668
54.92	1652
54.928	1635.99999999999
54.936	1619
54.944	1601
54.952	1585
54.96	1576
54.968	1579
54.976	1602
54.984	1649
54.992	1727.00000000008
55	1836
55.008	1971
55.016	2127
55.024	2292
55.032	2453.00000000014
55.04	2612
55.048	2753
55.056	2856.00000000007
55.064	2919
55.072	2945
55.08	2937
55.088	2901
55.096	2842.99999999994
55.104	2768
55.112	2680
55.12	2583.99999999991
55.128	2483
55.136	2382
55.144	2284
55.152	2193
55.16	2111.99999999993
55.168	2041
55.176	1984
55.184	1938.99999999997
55.192	1907
55.2	1885
55.208	1870
55.216	1860
55.224	1854
55.232	1850
55.24	1846
55.248	1841
55.256	1835
55.264	1826
55.272	1813
55.28	1798
55.288	1778.99999999998
55.296	1759
55.304	1738
55.312	1714
55.32	1689
55.328	1664
55.336	1638
55.344	1613
55.352	1586.99999999998
55.36	1561
55.368	1536
55.376	1510
55.384	1485
55.392	1460
55.4	1435
55.408	1412
55.416	1390.99999999998
55.424	1375
55.432	1366
55.44	1371
55.448	1397
55.456	1447
55.464	1526
55.472	1635
55.48	1769.00000000013
55.488	1919
55.496	2077
55.504	2231
55.512	2368
55.52	2479
55.528	2560
55.536	2608
55.544	2624
55.552	2609
55.56	2566
55.568	2499
55.576	2415
55.584	2320
55.592	2220
55.6	2120
55.608	2022.99999999992
55.616	1933
55.624	1854
55.632	1787
55.64	1733
55.648	1690
55.656	1658
55.664	1636
55.672	1620.99999999999
55.68	1614
55.688	1611
55.696	1611
55.704	1613
55.712	1614
55.72	1612
55.728	1607
55.736	1599.99999999999
55.744	1591
55.752	1581
55.76	1569
55.768	1555
55.776	1540
55.784	1524
55.792	1508
55.8	1489.99999999998
55.808	1470
55.816	1450
55.824	1431
55.832	1414
55.84	1397
55.848	1382
55.856	1366
55.864	1349.99999999999
55.872	1334
55.88	1318
55.888	1305
55.896	1297
55.904	1295
55.912	1304
55.92	1329
55.928	1377.00000000005
55.936	1452
55.944	1554
55.952	1680
55.96	1823
55.968	1975
55.976	2123
55.984	2256
55.992	2366.00000000008
56	2448
56.008	2498
56.016	2516
56.024	2503
56.032	2464.99999999996
56.04	2407
56.048	2332
56.056	2244.99999999992
56.064	2153
56.072	2060
56.08	1969
56.088	1884
56.096	1807.99999999994
56.104	1743
56.112	1690
56.12	1647.99999999997
56.128	1617
56.136	1599
56.144	1590
56.152	1585
56.16	1585
56.168	1590
56.176	1597
56.184	1604.00000000001
56.192	1609
56.2	1612
56.208	1611
56.216	1608
56.224	1600.99999999999
56.232	1592
56.24	1579
56.248	1562.99999999998
56.256	1544
56.264	1524
56.272	1504
56.28	1484
56.288	1464.99999999998
56.296	1446
56.304	1429
56.312	1414.99999999999
56.32	1400
56.328	1385
56.336	1371
56.344	1355
56.352	1339.99999999999
56.36	1327
56.368	1319
56.376	1320
56.384	1335
56.392	1372
56.4	1432
56.408	1519
56.416	1635.00000000011
56.424	1771
56.432	1920
56.44	2075
56.448	2224
56.456	2354
56.464	2460
56.472	2536
56.48	2578.00000000001
56.488	2588
56.496	2569
56.504	2524
56.512	2456
56.52	2373
56.528	2283
56.536	2189
56.544	2093.99999999992
56.552	2002
56.56	1918
56.568	1845
56.576	1785
56.584	1738
56.592	1703
56.6	1680
56.608	1666.99999999999
56.616	1663
56.624	1664
56.632	1668
56.64	1675
56.648	1683
56.656	1689
56.664	1692
56.672	1691
56.68	1687
56.688	1679
56.696	1670
56.704	1659
56.712	1646
56.72	1630
56.728	1611
56.736	1590.99999999998
56.744	1570
56.752	1547
56.76	1526
56.768	1506
56.776	1486
56.784	1468
56.792	1451
56.8	1434.99999999999
56.808	1422
56.816	1410
56.824	1399
56.832	1392
56.84	1392
56.848	1404
56.856	1433
56.864	1485.00000000006
56.872	1563
56.88	1669
56.888	1801
56.896	1953
56.904	2115
56.912	2277
56.92	2429
56.928	2559.0000000001
56.936	2658
56.944	2723
56.952	2754
56.96	2752
56.968	2723
56.976	2670
56.984	2598
56.992	2513.99999999992
57	2422
57.008	2329
57.016	2238
57.024	2150
57.032	2069.99999999993
57.04	2000
57.048	1943
57.056	1899.99999999997
57.064	1869
57.072	1850
57.08	1839
57.088	1816
57.096	1788.99999999999
57.104	1780
57.112	1778
57.12	1780
57.128	1782
57.136	1782
57.144	1780
57.152	1776
57.16	1768.99999999999
57.168	1759
57.176	1747
57.184	1733.99999999999
57.192	1719
57.2	1703
57.208	1687
57.216	1671
57.224	1653.99999999998
57.232	1636
57.24	1617
57.248	1598.99999999998
57.256	1581
57.264	1564
57.272	1548
57.28	1532
57.288	1515.99999999999
57.296	1500
57.304	1487
57.312	1483
57.32	1493
57.328	1524
57.336	1580
57.344	1665
57.352	1781.00000000011
57.36	1922
57.368	2080
57.376	2245
57.384	2405
57.392	2549
57.4	2669
57.408	2758
57.416	2812.00000000003
57.424	2834
57.432	2826
57.44	2791
57.448	2735
57.456	2664
57.464	2582
57.472	2494
57.48	2402.99999999992
57.488	2314
57.496	2231
57.504	2155
57.512	2088
57.52	2032
57.528	1986
57.536	1950
57.544	1924.99999999998
57.552	1910
57.56	1901
57.568	1898
57.576	1897
57.584	1897
57.592	1897
57.6	1897
57.608	1896
57.616	1891
57.624	1882
57.632	1869
57.64	1853
57.648	1832
57.656	1808
57.664	1783
57.672	1756.99999999998
57.68	1730
57.688	1703
57.696	1678
57.704	1652
57.712	1627
57.72	1604
57.728	1581
57.736	1559.99999999998
57.744	1539
57.752	1519
57.76	1499
57.768	1479
57.776	1462
57.784	1451
57.792	1450
57.8	1465.00000000002
57.808	1503
57.816	1567
57.824	1661
57.832	1783
57.84	1925
57.848	2078
57.856	2230
57.864	2369.00000000011
57.872	2488
57.88	2579
57.888	2639
57.896	2666
57.904	2661
57.912	2629
57.92	2575
57.928	2504.99999999993
57.936	2422
57.944	2331
57.952	2239
57.96	2148
57.968	2059
57.976	1977
57.984	1903
57.992	1838.99999999995
58	1786
58.008	1742
58.016	1710
58.024	1688
58.032	1672.99999999999
58.04	1665
58.048	1660
58.056	1656
58.064	1653
58.072	1649
58.08	1644
58.088	1638
58.096	1628.99999999999
58.104	1617
58.112	1601
58.12	1581.99999999998
58.128	1562
58.136	1540
58.144	1516
58.152	1492
58.16	1468.99999999998
58.168	1447
58.176	1426
58.184	1404.99999999998
58.192	1384
58.2	1364
58.208	1346
58.216	1329
58.224	1312.99999999999
58.232	1297
58.24	1282
58.248	1266.99999999999
58.256	1254
58.264	1245
58.272	1245
58.28	1259
58.288	1293.00000000004
58.296	1351
58.304	1434
58.312	1540.0000000001
58.32	1666
58.328	1805
58.336	1947
58.344	2079
58.352	2194.00000000009
58.36	2286
58.368	2351
58.376	2389
58.384	2398
58.392	2379
58.4	2338
58.408	2278
58.416	2203.99999999993
58.424	2122
58.432	2035
58.44	1947
58.448	1863
58.456	1786
58.464	1718
58.472	1660
58.48	1612.99999999996
58.488	1578
58.496	1552
58.504	1536
58.512	1528
58.52	1526
58.528	1530
58.536	1536
58.544	1541
58.552	1547
58.56	1552
58.568	1553
58.576	1552
58.584	1548
58.592	1543
58.6	1536
58.608	1523.99999999999
58.616	1509
58.624	1492
58.632	1473
58.64	1454
58.648	1434
58.656	1413
58.664	1392
58.672	1370.99999999998
58.68	1352
58.688	1333
58.696	1316
58.704	1300
58.712	1285
58.72	1272
58.728	1260
58.736	1252
58.744	1251
58.752	1262
58.76	1288
58.768	1336
58.776	1409
58.784	1507
58.792	1625
58.8	1757.00000000012
58.808	1898
58.816	2037
58.824	2164
58.832	2271
58.84	2355
58.848	2410
58.856	2436
58.864	2436
58.872	2411
58.88	2364
58.888	2299
58.896	2223
58.904	2139
58.912	2052
58.92	1966
58.928	1885.99999999993
58.936	1812
58.944	1746
58.952	1691
58.96	1647
58.968	1613
58.976	1589
58.984	1576
58.992	1571
59	1571
59.008	1575
59.016	1583
59.024	1592
59.032	1598
59.04	1601
59.048	1601
59.056	1597
59.064	1589
59.072	1579
59.08	1568
59.088	1555
59.096	1541.99999999999
59.104	1526
59.112	1507
59.12	1486.99999999998
59.128	1468
59.136	1445
59.144	1419
59.152	1395
59.16	1372.99999999998
59.168	1353
59.176	1336
59.184	1319.99999999999
59.192	1305
59.2	1291
59.208	1279
59.216	1274
59.224	1280.00000000001
59.232	1303
59.24	1350
59.248	1424.00000000008
59.256	1524
59.264	1648
59.272	1792
59.28	1947
59.288	2103.00000000013
59.296	2249
59.304	2376
59.312	2477.00000000007
59.32	2548
59.328	2586
59.336	2594
59.344	2575
59.352	2533.99999999996
59.36	2473
59.368	2398
59.376	2313.99999999992
59.384	2227
59.392	2140
59.4	2053
59.408	1972
59.416	1898.99999999994
59.424	1837
59.432	1787
59.44	1747
59.448	1717
59.456	1699
59.464	1690
59.472	1688
59.48	1694.00000000001
59.488	1704
59.496	1715
59.504	1726
59.512	1734
59.52	1739
59.528	1741
59.536	1738
59.544	1729.99999999999
59.552	1719
59.56	1705
59.568	1689
59.576	1672
59.584	1653
59.592	1633
59.6	1612
59.608	1589.99999999998
59.616	1568
59.624	1548
59.632	1530
59.64	1514
59.648	1500
59.656	1487
59.664	1475
59.672	1462.99999999999
59.68	1454
59.688	1450
59.696	1456
59.704	1478
59.712	1522
59.72	1594
59.728	1696
59.736	1826.00000000012
59.744	1978
59.752	2142
59.76	2307
59.768	2463
59.776	2599
59.784	2708
59.792	2786
59.8	2832.00000000002
59.808	2846
59.816	2831
59.824	2792
59.832	2733
59.84	2660
59.848	2577
59.856	2490
59.864	2399.99999999992
59.872	2312
59.88	2231
59.888	2159
59.896	2095
59.904	2041
59.912	1998
59.92	1964
59.928	1938.99999999998
59.936	1924
59.944	1916
59.952	1912
59.96	1911
59.968	1914
59.976	1917
59.984	1919
59.992	1919
60	1916
60.008	1909
60.016	1899
60.024	1887
60.032	1871.99999999999
60.04	1854
60.048	1834
60.056	1811.99999999998
60.064	1790
60.072	1767
60.08	1744
60.088	1719
60.096	1694.99999999998
60.104	1672
60.112	1649
60.12	1627.99999999998
60.128	1607
60.136	1587
60.144	1568
60.152	1551
60.16	1538.99999999999
60.168	1534
60.176	1540
60.184	1564.00000000003
60.192	1611
60.2	1685
60.208	1787
60.216	1914
60.224	2059.00000000013
60.232	2215
60.24	2369
60.248	2511.00000000012
60.256	2633
60.264	2729
60.272	2796
60.28	2831
60.288	2836
60.296	2813
60.304	2768
60.312	2702.99999999994
60.32	2625
60.328	2538
60.336	2445
60.344	2353
60.352	2263.99999999992
60.36	2179
60.368	2101
60.376	2032.99999999994
60.384	1976
60.392	1929
60.4	1894
60.408	1868
60.416	1849.99999999999
60.424	1839
60.432	1833
60.44	1828
60.448	1824
60.456	1821
60.464	1817
60.472	1811
60.48	1802.99999999999
60.488	1791
60.496	1775
60.504	1755
60.512	1731
60.52	1705
60.528	1679
60.536	1652
60.544	1623.99999999998
60.552	1597
60.56	1570
60.568	1544
60.576	1520
60.584	1495
60.592	1472
60.6	1450
60.608	1428.99999999998
60.616	1410
60.624	1391
60.632	1374
60.64	1358
60.648	1346
60.656	1342
60.664	1352
60.672	1382.00000000003
60.68	1435
60.688	1514
60.696	1618
60.704	1744
60.712	1885
60.72	2030
60.728	2169
60.736	2295.0000000001
60.744	2400
60.752	2480
60.76	2530
60.768	2551
60.776	2546
60.784	2516
60.792	2466
60.8	2361.99999999992
60.808	2283
60.816	2199
60.824	2033
60.832	1956
60.84	1886
60.848	1770
60.856	1724
60.864	1687.99999999997
60.872	1653
60.88	1641
60.888	1637
60.896	1638
60.904	1641
60.912	1647
60.92	1654
60.928	1659
60.936	1660
60.944	1656
60.952	1648
60.96	1631
60.968	1616
60.976	1598
60.984	1578
60.992	1557.99999999998
61	1538
61.008	1517
61.016	1496
61.024	1475
61.032	1454.99999999998
61.04	1435
61.048	1416
61.056	1397.99999999998
61.064	1381
61.072	1364
61.08	1347
61.088	1334
61.096	1324
61.104	1321
61.112	1331
61.12	1358.00000000003
61.128	1407
61.136	1482
61.144	1581
61.152	1694
61.16	1818.00000000012
61.168	1955
61.176	2093
61.184	2221.0000000001
61.192	2329
61.2	2412
61.208	2467
61.216	2493
61.224	2491
61.232	2465
61.24	2419
61.248	2355.99999999994
61.256	2281
61.264	2200
61.272	2115
61.28	2031
61.288	1948.99999999993
61.296	1872
61.304	1803
61.312	1743.99999999995
61.32	1693
61.328	1654
61.336	1625
61.344	1605
61.352	1594
61.36	1591
61.368	1595
61.376	1602.00000000001
61.384	1610
61.392	1619
61.4	1626
61.408	1629
61.416	1630
61.424	1627
61.432	1621
61.44	1613
61.448	1602
61.456	1586
61.464	1568
61.472	1548
61.48	1525.99999999998
61.488	1504
61.496	1481
61.504	1457
61.512	1433
61.52	1410
61.528	1390
61.536	1373
61.544	1356.99999999999
61.552	1342
61.56	1329
61.568	1320
61.576	1315
61.584	1320
61.592	1340
61.6	1382
61.608	1449.00000000007
61.616	1543
61.624	1663
61.632	1803
61.64	1954
61.648	2107
61.656	2253
61.664	2382
61.672	2488.00000000008
61.68	2568
61.688	2619
61.696	2639
61.704	2630
61.712	2596
61.72	2542
61.728	2473
61.736	2393.99999999993
61.744	2308
61.752	2221
61.76	2135
61.768	2052
61.776	1975
61.784	1907
61.792	1848
61.8	1798.99999999996
61.808	1764
61.816	1739
61.824	1723
61.832	1715
61.84	1714
61.848	1716
61.856	1720
61.864	1726.00000000001
61.872	1732
61.88	1737
61.888	1740
61.896	1739
61.904	1736
61.912	1730
61.92	1721
61.928	1706.99999999999
61.936	1690
61.944	1671
61.952	1651
61.96	1632
61.968	1613
61.976	1594
61.984	1575
61.992	1555.99999999998
62	1536
62.008	1518
62.016	1501
62.024	1485
62.032	1469.99999999999
62.04	1458
62.048	1453
62.056	1459.00000000001
62.064	1480
62.072	1522
62.08	1590
62.088	1685
62.096	1806.00000000012
62.104	1948
62.112	2105
62.12	2267.00000000014
62.128	2422
62.136	2560
62.144	2676
62.152	2765
62.16	2825.00000000004
62.168	2856
62.176	2859
62.184	2837.99999999997
62.192	2794
62.2	2732
62.208	2658
62.216	2576
62.224	2487.99999999992
62.232	2399
62.24	2314
62.248	2232.99999999993
62.256	2160
62.264	2096
62.272	2044
62.28	2003
62.288	1971.99999999998
62.296	1950
62.304	1937
62.312	1932
62.32	1931
62.328	1933
62.336	1936
62.344	1938
62.352	1939
62.36	1938
62.368	1933
62.376	1924.99999999999
62.384	1912
62.392	1895
62.4	1877
62.408	1858
62.416	1837.99999999998
62.424	1817
62.432	1795
62.44	1772.99999999998
62.448	1752
62.456	1730
62.464	1708
62.472	1687
62.48	1665.99999999998
62.488	1644
62.496	1624
62.504	1605
62.512	1586
62.52	1569
62.528	1560
62.536	1563
62.544	1586.00000000003
62.552	1632
62.56	1707
62.568	1813
62.576	1945
62.584	2096
62.592	2256
62.6	2416
62.608	2567.00000000013
62.616	2700
62.624	2806
62.632	2882
62.64	2928
62.648	2946
62.656	2938
62.664	2906
62.672	2852.99999999995
62.68	2785
62.688	2705
62.696	2617
62.704	2526
62.712	2436
62.72	2350
62.728	2271
62.736	2200.99999999994
62.744	2138
62.752	2084
62.76	2042
62.768	2010
62.776	1986
62.784	1970
62.792	1959
62.8	1950.99999999999
62.808	1944
62.816	1937
62.824	1930
62.832	1919
62.84	1905
62.848	1889
62.856	1872
62.864	1851.99999999998
62.872	1831
62.88	1808
62.888	1782
62.896	1756
62.904	1728
62.912	1699
62.92	1671
62.928	1643.99999999998
62.936	1617
62.944	1590
62.952	1564
62.96	1540
62.968	1517
62.976	1495
62.984	1472
62.992	1449.99999999998
63	1432
63.008	1419
63.016	1416
63.024	1427
63.032	1459.00000000004
63.04	1516
63.048	1599
63.056	1708.00000000011
63.064	1837
63.072	1980
63.08	2125
63.088	2265
63.096	2391.0000000001
63.104	2495
63.112	2575
63.12	2627.00000000003
63.128	2650
63.136	2646
63.144	2619
63.152	2573
63.16	2509.99999999994
63.168	2436
63.176	2354
63.184	2266.99999999992
63.192	2180
63.2	2073
63.208	1961
63.216	1873
63.224	1803.99999999994
63.232	1748
63.24	1705
63.248	1675.99999999998
63.256	1655
63.264	1642
63.272	1635
63.28	1631
63.288	1628
63.296	1626
63.304	1624
63.312	1620
63.32	1613
63.328	1603
63.336	1590
63.344	1574
63.352	1556.99999999999
63.36	1541
63.368	1524
63.376	1503.99999999998
63.384	1483
63.392	1462
63.4	1440
63.408	1419
63.416	1397.99999999998
63.424	1377
63.432	1358
63.44	1338.99999999999
63.448	1324
63.456	1310
63.464	1296
63.472	1282
63.48	1268.99999999999
63.488	1262
63.496	1264
63.504	1278
63.512	1309
63.52	1363
63.528	1440
63.536	1538
63.544	1653.00000000011
63.552	1781
63.56	1914
63.568	2043
63.576	2162
63.584	2262
63.592	2339
63.6	2392
63.608	2419
63.616	2421
63.624	2399
63.632	2356
63.64	2297
63.648	2228
63.656	2150
63.664	2068
63.672	1985.99999999993
63.68	1906
63.688	1831
63.696	1764
63.704	1705
63.712	1657
63.72	1620
63.728	1592
63.736	1571.99999999999
63.744	1560
63.752	1554
63.76	1552
63.768	1553
63.776	1555
63.784	1557
63.792	1559
63.8	1559
63.808	1556
63.816	1550
63.824	1543
63.832	1535
63.84	1523
63.848	1507
63.856	1489
63.864	1468.99999999998
63.872	1448
63.88	1427
63.888	1407
63.896	1387
63.904	1367
63.912	1347
63.92	1329
63.928	1313.99999999999
63.936	1300
63.944	1288
63.952	1279
63.96	1275
63.968	1279
63.976	1294
63.984	1324
63.992	1375.00000000005
64	1449
64.008	1546
64.016	1663
64.024	1795
64.032	1936
64.04	2077
64.048	2209
64.056	2324
64.064	2416.00000000014
64.072	2483
64.08	2524
64.088	2536
64.096	2520
64.104	2481
64.112	2425
64.12	2355
64.128	2275
64.136	2190
64.144	2105
64.152	2023
64.16	1945
64.168	1875
64.176	1815
64.184	1766
64.192	1725.99999999994
64.2	1696
64.208	1677
64.216	1665.99999999999
64.224	1660
64.232	1658
64.24	1658
64.248	1659
64.256	1660
64.264	1659
64.272	1657
64.28	1652
64.288	1643
64.296	1633
64.304	1620
64.312	1604
64.32	1587.99999999997
64.328	1571
64.336	1554
64.344	1536.99999999997
64.352	1520
64.36	1501
64.368	1483
64.376	1465
64.384	1448
64.392	1433
64.4	1420
64.408	1406
64.416	1392
64.424	1381
64.432	1376
64.44	1379
64.448	1396.00000000004
64.456	1431
64.464	1490
64.472	1575.00000000017
64.48	1686
64.488	1817
64.496	1964
64.504	2117
64.512	2267
64.52	2405
64.528	2526
64.536	2623
64.544	2694
64.552	2737
64.56	2752
64.568	2739
64.576	2703.99999999992
64.584	2651
64.592	2584
64.6	2506
64.608	2423
64.616	2338
64.624	2254
64.632	2175
64.64	2103
64.648	2039
64.656	1985
64.664	1942
64.672	1909
64.68	1886
64.688	1869
64.696	1859
64.704	1853.99999999999
64.712	1852
64.72	1853
64.728	1854
64.736	1853
64.744	1851
64.752	1845
64.76	1837
64.768	1826
64.776	1810
64.784	1794
64.792	1778
64.8	1759
64.808	1739
64.816	1719
64.824	1699
64.832	1678.99999999997
64.84	1660
64.848	1644
64.856	1630
64.864	1615
64.872	1600
64.88	1585
64.888	1570
64.896	1554
64.904	1543
64.912	1540
64.92	1549
64.928	1578
64.936	1630
64.944	1710
64.952	1818
64.96	1949.00000000025
64.968	2096
64.976	2249
64.984	2402
64.992	2543
65	2665
65.008	2764
65.016	2834
65.024	2875
65.032	2890
65.04	2879
65.048	2846
65.056	2793
65.064	2726.99999999987
65.072	2651
65.08	2569
65.088	2485.99999999985
65.096	2402
65.104	2321
65.112	2247
65.12	2182
65.128	2125
65.136	2077
65.144	2040
65.152	2011
65.16	1989
65.168	1973
65.176	1961
65.184	1951
65.192	1942.99999999999
65.2	1936
65.208	1926
65.216	1912.99999999998
65.224	1900
65.232	1885
65.24	1868
65.248	1839
65.256	1804
65.264	1774
65.272	1747
65.28	1721
65.288	1695
65.296	1669
65.304	1644
65.312	1619
65.32	1594.99999999996
65.328	1571
65.336	1547
65.344	1523.99999999996
65.352	1501
65.36	1480
65.368	1460
65.376	1444
65.384	1434
65.392	1435
65.4	1452
65.408	1488
65.416	1547
65.424	1631
65.432	1738
65.44	1862
65.448	1998.00000000025
65.456	2138
65.464	2274
65.472	2396.0000000002
65.48	2497
65.488	2573
65.496	2619
65.504	2636
65.512	2627
65.52	2596
65.528	2546
65.536	2481
65.544	2406
65.552	2324
65.56	2237
65.568	2151
65.576	2069.99999999986
65.584	1995
65.592	1928
65.6	1868
65.608	1816
65.616	1774
65.624	1742
65.632	1717
65.64	1699
65.648	1687
65.656	1679
65.664	1673
65.672	1667
65.68	1660
65.688	1651
65.696	1641
65.704	1629.99999999998
65.712	1618
65.72	1604
65.728	1589
65.736	1574
65.744	1556
65.752	1538
65.76	1521
65.768	1504
65.776	1486
65.784	1468
65.792	1448
65.8	1428
65.808	1409
65.816	1391
65.824	1374
65.832	1356.99999999997
65.84	1341
65.848	1327
65.856	1318
65.864	1315
65.872	1324
65.88	1348
65.888	1390
65.896	1452
65.904	1534
65.912	1635
65.92	1753
65.928	1879
65.936	2005
65.944	2125
65.952	2229
65.96	2312.00000000012
65.968	2369
65.976	2399
65.984	2404
65.992	2384
66	2343
66.008	2288
66.016	2221
66.024	2146
66.032	2066
66.04	1986
66.048	1908
66.056	1835
66.064	1770.99999999989
66.072	1716
66.08	1672
66.088	1637.99999999995
66.096	1612
66.104	1595
66.112	1586
66.12	1582
66.128	1581
66.136	1581
66.144	1581
66.152	1581
66.16	1580
66.168	1575
66.176	1568
66.184	1559
66.192	1548.99999999998
66.2	1539
66.208	1528
66.216	1514.99999999998
66.224	1503
66.232	1491
66.24	1477
66.248	1460
66.256	1441
66.264	1421
66.272	1401
66.28	1383
66.288	1366
66.296	1349
66.304	1334
66.312	1320
66.32	1308.99999999999
66.328	1305
66.336	1309
66.344	1326.00000000004
66.352	1361
66.36	1417
66.368	1493
66.376	1587
66.384	1698
66.392	1820
66.4	1946
66.408	2070
66.416	2183
66.424	2279
66.432	2353
66.44	2401
66.448	2422
66.456	2417
66.464	2390
66.472	2342.99999999991
66.48	2282
66.488	2209
66.496	2129
66.504	2047
66.512	1967
66.52	1891
66.528	1822
66.536	1761
66.544	1710
66.552	1669
66.56	1638
66.568	1614
66.576	1597.99999999998
66.584	1589
66.592	1585
66.6	1583
66.608	1584
66.616	1587
66.624	1590
66.632	1591
66.64	1591
66.648	1588
66.656	1582
66.664	1573
66.672	1561
66.68	1547
66.688	1531
66.696	1513
66.704	1495.99999999997
66.712	1479
66.72	1462
66.728	1444
66.736	1427
66.744	1412
66.752	1397
66.76	1384
66.768	1371
66.776	1360
66.784	1351
66.792	1348
66.8	1354
66.808	1374
66.816	1413
66.824	1474
66.832	1557.00000000017
66.84	1663
66.848	1788
66.856	1925
66.864	2067
66.872	2206
66.88	2334
66.888	2443
66.896	2528
66.904	2586
66.912	2616
66.92	2620
66.928	2599
66.936	2556
66.944	2496
66.952	2425
66.96	2344.99999999985
66.968	2260
66.976	2176
66.984	2096
66.992	2023
67	1959
67.008	1905
67.016	1861
67.024	1826
67.032	1801
67.04	1786
67.048	1776
67.056	1769
67.064	1764.99999999999
67.072	1762
67.08	1758
67.088	1753.99999999999
67.096	1749
67.104	1743
67.112	1736
67.12	1728
67.128	1720
67.136	1710
67.144	1698
67.152	1686
67.16	1673
67.168	1659
67.176	1644
67.184	1629
67.192	1614.99999999998
67.2	1601
67.208	1588
67.216	1573.99999999998
67.224	1560
67.232	1546
67.24	1533
67.248	1523
67.256	1518
67.264	1522
67.272	1541
67.28	1581
67.288	1644
67.296	1744
67.304	1882
67.312	2043
67.32	2221.00000000032
67.328	2404
67.336	2578
67.344	2734.00000000025
67.352	2864
67.36	2962
67.368	3026
67.376	3055
67.384	3052
67.392	3021
67.4	2968
67.408	2895
67.416	2807
67.424	2708
67.432	2604
67.44	2502
67.448	2403.99999999983
67.456	2312
67.464	2230
67.472	2159.99999999989
67.48	2103
67.488	2061
67.496	2030
67.504	2006
67.512	1989
67.52	1977
67.528	1968
67.536	1961
67.544	1956
67.552	1950
67.56	1941
67.568	1930
67.576	1915.99999999997
67.584	1900
67.592	1883
67.6	1865
67.608	1845
67.616	1823
67.624	1800
67.632	1776
67.64	1752
67.648	1728
67.656	1703
67.664	1677
67.672	1650
67.68	1623
67.688	1596
67.696	1567
67.704	1539.99999999995
67.712	1516
67.72	1499
67.728	1494
67.736	1507
67.744	1545
67.752	1611
67.76	1708
67.768	1834
67.776	1984
67.784	2149
67.792	2320
67.8	2487
67.808	2639
67.816	2765
67.824	2862
67.832	2927.00000000008
67.84	2960
67.848	2959
67.856	2928
67.864	2872
67.872	2795
67.88	2701
67.888	2596
67.896	2485
67.904	2372
67.912	2261
67.92	2160
67.928	2069
67.936	1991
67.944	1926
67.952	1872
67.96	1828.99999999993
67.968	1795
67.976	1769
67.984	1751
67.992	1737
68	1725
68.008	1715
68.016	1704
68.024	1691
68.032	1679
68.04	1666
68.048	1651
68.056	1636
68.064	1619.99999999997
68.072	1605
68.08	1590
68.088	1571.99999999997
68.096	1551
68.104	1527
68.112	1501
68.12	1474
68.128	1447
68.136	1421
68.144	1394
68.152	1367
68.16	1343
68.168	1320
68.176	1299
68.184	1283
68.192	1275
68.2	1282
68.208	1305
68.216	1349.0000000001
68.224	1420
68.232	1517
68.24	1639
68.248	1782
68.256	1935
68.264	2091
68.272	2241
68.28	2375
68.288	2483
68.296	2560
68.304	2604
68.312	2614
68.32	2591.99999999995
68.328	2542
68.336	2468
68.344	2376.99999999983
68.352	2277
68.36	2172
68.368	2066
68.376	1964
68.384	1871
68.392	1789
68.4	1718
68.408	1659
68.416	1612
68.424	1575
68.432	1549
68.44	1531
68.448	1519.99999999999
68.456	1514
68.464	1511
68.472	1510
68.48	1509
68.488	1506
68.496	1500
68.504	1493
68.512	1484
68.52	1474
68.528	1464
68.536	1454
68.544	1442
68.552	1427
68.56	1411
68.568	1393
68.576	1373.99999999997
68.584	1354
68.592	1336
68.6	1318.99999999997
68.608	1302
68.616	1284
68.624	1266
68.632	1249
68.64	1235
68.648	1226
68.656	1226
68.664	1240
68.672	1270
68.68	1321
68.688	1398
68.696	1500
68.704	1627.00000000024
68.712	1774
68.72	1930
68.728	2087
68.736	2236
68.744	2366
68.752	2469
68.76	2539
68.768	2573
68.776	2572
68.784	2539
68.792	2480
68.8	2400
68.808	2306
68.816	2203
68.824	2098
68.832	1993.99999999982
68.84	1895
68.848	1806
68.856	1729
68.864	1666
68.872	1615
68.88	1576
68.888	1547
68.896	1527
68.904	1513
68.912	1505
68.92	1501
68.928	1499
68.936	1497
68.944	1495
68.952	1493
68.96	1488.99999999999
68.968	1484
68.976	1477
68.984	1470
68.992	1462
69	1451
69.008	1439
69.016	1426
69.024	1409
69.032	1389
69.04	1368
69.048	1346
69.056	1323
69.064	1301.99999999996
69.072	1281
69.08	1261
69.088	1241.99999999997
69.096	1225
69.104	1216
69.112	1216
69.12	1232
69.128	1269
69.136	1331
69.144	1420
69.152	1536
69.16	1678
69.168	1839
69.176	2011
69.184	2185
69.192	2352.00000000028
69.2	2499
69.208	2617
69.216	2701.00000000011
69.224	2748
69.232	2757
69.24	2733
69.248	2680
69.256	2602
69.264	2505
69.272	2396
69.28	2279
69.288	2163
69.296	2052
69.304	1949
69.312	1860
69.32	1783.99999999988
69.328	1722
69.336	1676
69.344	1644.99999999996
69.352	1627
69.36	1618
69.368	1613
69.376	1612
69.384	1612
69.392	1611
69.4	1610
69.408	1609
69.416	1609
69.424	1607
69.432	1602
69.44	1594
69.448	1583.99999999998
69.456	1574
69.464	1563
69.472	1548.99999999997
69.48	1533
69.488	1517
69.496	1502
69.504	1486
69.512	1469
69.52	1454
69.528	1439
69.536	1425
69.544	1412
69.552	1401
69.56	1396
69.568	1397
69.576	1410.00000000003
69.584	1440
69.592	1492
69.6	1569.00000000016
69.608	1672
69.616	1797
69.624	1941
69.632	2094
69.64	2246
69.648	2390
69.656	2516
69.664	2616
69.672	2687
