Time	PPG1
0	1283
0.008	1292
0.016	1307
0.024	1326
0.032	1347
0.04	1370
0.048	1392
0.056	1412
0.064	1430
0.072	1444
0.08	1455
0.088	1463
0.096	1464
0.104	1459
0.112	1451
0.12	1441
0.128	1429
0.136	1414
0.144	1398
0.152	1382
0.16	1365
0.168	1348
0.176	1329
0.184	1312
0.192	1295
0.2	1278
0.208	1261
0.216	1247
0.224	1235
0.232	1223
0.24	1211
0.248	1200
0.256	1189
0.264	1178
0.272	1167
0.28	1158
0.288	1148
0.296	1137
0.304	1127
0.312	1118
0.32	1109
0.328	1101
0.336	1093
0.344	1085
0.352	1077
0.36	1068
0.368	1058
0.376	1048
0.384	1041
0.392	1046
0.4	1063
0.408	1099
0.416	1165
0.424	1270
0.432	1406
0.44	1567
0.448	1756
0.456	1961
0.464	2172
0.472	2377
0.48	2566
0.488	2724
0.496	2853
0.504	2954
0.512	3019
0.52	3050
0.528	3053
0.536	3035
0.544	2996
0.552	2939
0.56	2871
0.568	2796
0.576	2712
0.584	2621
0.592	2526
0.6	2426
0.608	2321
0.616	2212
0.624	2100
0.632	1988
0.64	1876
0.648	1768
0.656	1666
0.664	1571
0.672	1488
0.68	1419
0.688	1364
0.696	1321
0.704	1292
0.712	1275
0.72	1270
0.728	1274
0.736	1286
0.744	1303
0.752	1325
0.76	1349
0.768	1372
0.776	1393
0.784	1413
0.792	1429
0.8	1441
0.808	1449
0.816	1452
0.824	1450
0.832	1445
0.84	1438
0.848	1428
0.856	1416
0.864	1401
0.872	1384
0.88	1366
0.888	1348
0.896	1329
0.904	1311
0.912	1294
0.92	1277
0.928	1261
0.936	1246
0.944	1232
0.952	1218
0.96	1204
0.968	1191
0.976	1180
0.984	1170
0.992	1160
1	1149
1.008	1139
1.016	1129
1.024	1119
1.032	1109
1.04	1099
1.048	1090
1.056	1082
1.064	1074
1.072	1065
1.08	1057
1.088	1048
1.096	1039
1.104	1034
1.112	1034
1.12	1047
1.128	1085
1.136	1146
1.144	1233
1.152	1357
1.16	1516
1.168	1699
1.176	1896
1.184	2100
1.192	2299
1.2	2487
1.208	2656
1.216	2795
1.224	2898
1.232	2969
1.24	3013
1.248	3026
1.256	3011
1.264	2975
1.272	2924
1.28	2859
1.288	2783
1.296	2700
1.304	2612
1.312	2518
1.32	2417
1.328	2312
1.336	2203
1.344	2092
1.352	1980
1.36	1868
1.368	1759
1.376	1658
1.384	1567
1.392	1486
1.4	1415
1.408	1358
1.416	1315
1.424	1286
1.432	1266
1.44	1258
1.448	1262
1.456	1274
1.464	1291
1.472	1314
1.48	1338
1.488	1361
1.496	1385
1.504	1407
1.512	1423
1.52	1434
1.528	1442
1.536	1446
1.544	1445
1.552	1442
1.56	1436
1.568	1427
1.576	1416
1.584	1402
1.592	1387
1.6	1370
1.608	1351
1.616	1334
1.624	1316
1.632	1298
1.64	1281
1.648	1265
1.656	1250
1.664	1236
1.672	1223
1.68	1212
1.688	1201
1.696	1190
1.704	1179
1.712	1170
1.72	1160
1.728	1149
1.736	1139
1.744	1130
1.752	1121
1.76	1113
1.768	1105
1.776	1097
1.784	1089
1.792	1082
1.8	1074
1.808	1064
1.816	1054
1.824	1045
1.832	1045
1.84	1056
1.848	1081
1.856	1134
1.864	1224
1.872	1345
1.88	1493
1.888	1671.00000000001
1.896	1869.00000000001
1.904	2076.00000000001
1.912	2282.00000000001
1.92	2476
1.928	2644
1.936	2787
1.944	2904
1.952	2986
1.96	3031
1.968	3047
1.976	3041
1.984	3012
1.992	2963
2	2901
2.008	2830
2.016	2750
2.024	2661
2.032	2567
2.04	2468
2.048	2361
2.056	2250
2.064	2137
2.072	2025
2.08	1913
2.088	1804
2.096	1701
2.104	1607
2.112	1522
2.12	1449
2.128	1389
2.136	1340
2.144	1304
2.152	1283
2.16	1274
2.168	1273
2.176	1283
2.184	1300
2.192	1321
2.2	1345
2.208	1369
2.216	1391
2.224	1411
2.232	1429
2.24	1444
2.248	1454
2.256	1459
2.264	1461
2.272	1459
2.28	1453
2.288	1445
2.296	1434
2.304	1419
2.312	1403
2.32	1386
2.328	1368
2.336	1349
2.344	1331
2.352	1314
2.36	1297
2.368	1281
2.376	1266
2.384	1251
2.392	1238
2.4	1225
2.408	1213
2.416	1202
2.424	1190
2.432	1179
2.44	1169
2.448	1159
2.456	1149
2.464	1139
2.472	1130
2.48	1122
2.488	1114
2.496	1106
2.504	1099
2.512	1092
2.52	1083
2.528	1072
2.536	1061
2.544	1053
2.552	1049
2.56	1056
2.568	1084
2.576	1135
2.584	1212
2.592	1322
2.6	1468
2.608	1642
2.616	1835
2.624	2042
2.632	2246
2.64	2442
2.648	2623
2.656	2776
2.664	2892
2.672	2978
2.68	3037
2.688	3064
2.696	3059
2.704	3032
2.712	2989
2.72	2932
2.728	2862
2.736	2783
2.744	2698
2.752	2604.99999999999
2.76	2505.99999999999
2.768	2401.99999999999
2.776	2293.99999999999
2.784	2181.99999999999
2.792	2067.99999999999
2.8	1953.99999999999
2.808	1842.99999999999
2.816	1737
2.824	1638
2.832	1548
2.84	1469
2.848	1404
2.856	1354
2.864	1316
2.872	1289
2.88	1276
2.888	1274
2.896	1281
2.904	1295
2.912	1315
2.92	1338
2.928	1362
2.936	1386
2.944	1408
2.952	1426
2.96	1440
2.968	1450
2.976	1455
2.984	1457
2.992	1456
3	1452
3.008	1444
3.016	1432
3.024	1419
3.032	1405
3.04	1389
3.048	1372
3.056	1354
3.064	1336
3.072	1319
3.08	1303
3.088	1286
3.096	1269
3.104	1253
3.112	1238
3.12	1224
3.128	1211
3.136	1200
3.144	1189
3.152	1179
3.16	1170
3.168	1161
3.176	1152
3.184	1142
3.192	1133
3.2	1125
3.208	1117
3.216	1108
3.224	1099
3.232	1091
3.24	1082
3.248	1072
3.256	1061
3.264	1052
3.272	1049
3.28	1054
3.288	1070
3.296	1110
3.304	1185
3.312	1291.00000000001
3.32	1426.00000000001
3.328	1593.00000000001
3.336	1785
3.344	1992
3.352	2201
3.36	2403
3.368	2584
3.376	2741
3.384	2874
3.392	2972
3.4	3032
3.408	3062
3.416	3068
3.424	3049
3.432	3008
3.44	2951
3.448	2885
3.456	2808
3.464	2722
3.472	2632
3.48	2537
3.488	2436
3.496	2329
3.504	2219
3.512	2107
3.52	1994
3.528	1882
3.536	1773
3.544	1671
3.552	1578
3.56	1497
3.568	1428
3.576	1370
3.584	1326
3.592	1296
3.6	1279
3.608	1272
3.616	1274
3.624	1286
3.632	1305
3.64	1327
3.648	1351
3.656	1375
3.664	1397
3.672	1416
3.68	1431
3.688	1443
3.696	1451
3.704	1455
3.712	1455
3.72	1451
3.728	1443
3.736	1432
3.744	1418
3.752	1402
3.76	1385
3.768	1368
3.776	1349
3.784	1331
3.792	1314
3.8	1297
3.808	1280
3.816	1263
3.824	1248
3.832	1233
3.84	1220
3.848	1207
3.856	1195
3.864	1184
3.872	1174
3.88	1164
3.888	1153
3.896	1143
3.904	1134
3.912	1124
3.92	1114
3.928	1106
3.936	1099
3.944	1091
3.952	1083
3.96	1075
3.968	1066
3.976	1056
3.984	1046
3.992	1039
4	1040
4.008	1057
4.016	1094
4.024	1153
4.032	1247
4.04	1381
4.048	1545
4.056	1731
4.064	1936
4.072	2145
4.08	2351
4.088	2544
4.096	2712
4.104	2846
4.112	2949
4.12	3024
4.128	3065
4.136	3074
4.144	3057
4.152	3023
4.16	2971
4.168	2904
4.176	2828
4.184	2746
4.192	2657
4.2	2562
4.208	2460
4.216	2354
4.224	2244
4.232	2131
4.24	2018
4.248	1905
4.256	1795
4.264	1692
4.272	1597
4.28	1512
4.288	1439
4.296	1380
4.304	1332
4.312	1297
4.32	1276
4.328	1266
4.336	1266
4.344	1275
4.352	1291
4.36	1311
4.368	1334
4.376	1357
4.384	1380
4.392	1399
4.4	1416
4.408	1429
4.416	1438
4.424	1442
4.432	1442
4.44	1439
4.448	1433
4.456	1423
4.464	1411
4.472	1398
4.48	1382
4.488	1364
4.496	1346
4.504	1328
4.512	1310
4.52	1292
4.528	1274
4.536	1258
4.544	1243
4.552	1229
4.56	1215
4.568	1202
4.576	1190
4.584	1179
4.592	1170
4.6	1161
4.608	1152
4.616	1142
4.624	1132
4.632	1122
4.64	1112
4.648	1101
4.656	1092
4.664	1085
4.672	1078
4.68	1069
4.688	1060
4.696	1050
4.704	1040
4.712	1032
4.72	1030
4.728	1039
4.736	1066
4.744	1123
4.752	1211
4.76	1327
4.768	1478
4.776	1659
4.784	1862
4.792	2074
4.8	2285
4.808	2481
4.816	2657
4.824	2809
4.832	2927
4.84	3007
4.848	3055
4.856	3077
4.864	3071
4.872	3039
4.88	2989
4.888	2927
4.896	2854
4.904	2771
4.912	2682
4.92	2588
4.928	2489
4.936	2384
4.944	2274
4.952	2161
4.96	2046
4.968	1931
4.976	1819
4.984	1712
4.992	1612
5	1523
5.008	1446
5.016	1380
5.024	1328
5.032	1291
5.04	1267
5.048	1253
5.056	1251
5.064	1259
5.072	1275
5.08	1296
5.088	1319
5.096	1344
5.104	1368
5.112	1391
5.12	1411
5.128	1426
5.136	1437
5.144	1445
5.152	1448
5.16	1446
5.168	1441
5.176	1434
5.184	1423
5.192	1410
5.2	1395
5.208	1379
5.216	1362
5.224	1343
5.232	1324
5.24	1305
5.248	1287
5.256	1271
5.264	1256
5.272	1240
5.28	1226
5.288	1214
5.296	1201
5.304	1188
5.312	1176
5.32	1165
5.328	1154
5.336	1143
5.344	1134
5.352	1125
5.36	1117
5.368	1109
5.376	1102
5.384	1095
5.392	1088
5.4	1080
5.408	1072
5.416	1064
5.424	1055
5.432	1047
5.44	1043
5.448	1053
5.456	1079
5.464	1125
5.472	1203
5.48	1320
5.488	1469
5.496	1644
5.504	1843.00000000002
5.512	2054.00000000002
5.52	2267.00000000002
5.528	2473.00000000002
5.536	2658.00000000002
5.544	2810.00000000002
5.552	2932.00000000001
5.56	3025.00000000001
5.568	3084
5.576	3108
5.584	3104
5.592	3079
5.6	3033.99999999999
5.608	2970.99999999999
5.616	2897.99999999999
5.624	2817.99999999999
5.632	2731
5.64	2638
5.648	2540
5.656	2438
5.664	2331
5.672	2219
5.68	2104
5.688	1989
5.696	1876
5.704	1767
5.712	1665
5.72	1572
5.728	1489
5.736	1420
5.744	1363
5.752	1318
5.76	1287
5.768	1271
5.776	1266
5.784	1269
5.792	1281
5.8	1299
5.808	1321
5.816	1345
5.824	1369
5.832	1392
5.84	1412
5.848	1429
5.856	1441
5.864	1447
5.872	1450
5.88	1449
5.888	1444
5.896	1435
5.904	1426
5.912	1414
5.92	1399
5.928	1383
5.936	1366
5.944	1348
5.952	1329
5.96	1310
5.968	1292
5.976	1275
5.984	1259
5.992	1244
6	1229
6.008	1216
6.016	1203
6.024	1191
6.032	1180
6.04	1169
6.048	1159
6.056	1149
6.064	1139
6.072	1129
6.08	1118
6.088	1107
6.096	1098
6.104	1089
6.112	1082
6.12	1074
6.128	1065
6.136	1057
6.144	1047
6.152	1037
6.16	1030
6.168	1028
6.176	1038
6.184	1071
6.192	1129
6.2	1213
6.208	1411
6.216	1581
6.224	1773
6.232	2189
6.24	2391
6.248	2578
6.256	2871
6.264	2967
6.272	3032
6.28	3070
6.288	3047
6.296	3007
6.304	2922
6.312	2848
6.32	2766
6.328	2679
6.336	2587
6.344	2488
6.352	2384
6.36	2277
6.368	2166
6.376	2052
6.384	1938
6.392	1827
6.4	1722
6.408	1625
6.416	1538
6.424	1460
6.432	1394
6.44	1343
6.448	1305
6.456	1278
6.464	1264
6.472	1261
6.48	1268
6.488	1281
6.496	1300
6.504	1321
6.512	1343
6.52	1365
6.528	1385
6.536	1401
6.544	1414
6.552	1424
6.56	1430
6.568	1431
6.576	1429
6.584	1424
6.592	1415
6.6	1403
6.608	1387
6.616	1369
6.624	1351
6.632	1332
6.64	1312
6.648	1294
6.656	1276
6.664	1258
6.672	1240
6.68	1223
6.688	1210
6.696	1198
6.704	1187
6.712	1177
6.72	1167
6.728	1157
6.736	1147
6.744	1139
6.752	1131
6.76	1122
6.768	1113
6.776	1105
6.784	1096
6.792	1086
6.8	1076
6.808	1066
6.816	1058
6.824	1050
6.832	1041
6.84	1031
6.848	1019
6.856	1010
6.864	1005
6.872	1008
6.88	1026
6.888	1072
6.896	1145
6.904	1246
6.912	1383
6.92	1554
6.928	1747
6.936	1952
6.944	2160
6.952	2358
6.96	2539
6.968	2699
6.976	2828
6.984	2919
6.992	2980
7	3013
7.008	3016
7.016	2992
7.024	2950
7.032	2896
7.04	2828
7.048	2749
7.056	2664
7.064	2573
7.072	2476
7.08	2371
7.088	2263
7.096	2154
7.104	2041
7.112	1926
7.12	1813
7.128	1706
7.136	1605
7.144	1515
7.152	1435
7.16	1365
7.168	1308
7.176	1267
7.184	1239
7.192	1220
7.2	1213
7.208	1218
7.216	1231
7.224	1250
7.232	1272
7.24	1296
7.248	1321
7.256	1346
7.264	1367
7.272	1384
7.28	1396
7.288	1405
7.296	1411
7.304	1412
7.312	1408
7.32	1402
7.328	1392
7.336	1379
7.344	1366
7.352	1351
7.36	1336
7.368	1319
7.376	1302
7.384	1285
7.392	1268
7.4	1251
7.408	1236
7.416	1221
7.424	1208
7.432	1194
7.44	1180
7.448	1167
7.456	1156
7.464	1145
7.472	1136
7.48	1128
7.488	1120
7.496	1112
7.504	1103
7.512	1094
7.52	1085
7.528	1077
7.536	1070
7.544	1063
7.552	1056
7.56	1047
7.568	1038
7.576	1029
7.584	1022
7.592	1021
7.6	1029
7.608	1051
7.616	1099.00000000001
7.624	1182.00000000001
7.632	1295.00000000001
7.64	1436.00000000002
7.648	1608.00000000002
7.656	1803.00000000002
7.664	2010.00000000002
7.672	2217.00000000002
7.68	2414
7.688	2587
7.696	2736
7.704	2858
7.712	2947
7.72	2999
7.728	3021
7.736	3021
7.744	2996
7.752	2948
7.76	2886
7.768	2816
7.776	2737
7.784	2649
7.792	2555
7.8	2457
7.808	2353
7.816	2244
7.824	2132
7.832	2020
7.84	1908
7.848	1798
7.856	1693
7.864	1595
7.872	1506
7.88	1430
7.888	1365
7.896	1311
7.904	1271
7.912	1245
7.92	1230
7.928	1224
7.936	1228
7.944	1241
7.952	1262
7.96	1285
7.968	1311
7.976	1337
7.984	1360
7.992	1380
8	1398
8.008	1411
8.016	1419
8.024	1423
8.032	1423
8.04	1419
8.048	1413
8.056	1404
8.064	1391
8.072	1378
8.08	1362
8.088	1345
8.096	1329
8.104	1312
8.112	1294
8.12	1277
8.128	1262
8.136	1247
8.144	1232
8.152	1217
8.16	1204
8.168	1192
8.176	1181
8.184	1171
8.192	1161
8.2	1151
8.208	1141
8.216	1131
8.224	1122
8.232	1112
8.24	1102
8.248	1094
8.256	1087
8.264	1080
8.272	1073
8.28	1066
8.288	1056
8.296	1046
8.304	1037
8.312	1030
8.32	1028
8.328	1042
8.336	1072
8.344	1123
8.352	1208
8.36	1330
8.368	1483
8.376	1659
8.384	1856
8.392	2062
8.4	2267
8.408	2462
8.416	2634
8.424	2774
8.432	2885
8.44	2969
8.448	3019
8.456	3035
8.464	3026
8.472	2998
8.48	2951
8.488	2888
8.496	2814
8.504	2735
8.512	2649
8.52	2554
8.528	2454
8.536	2351
8.544	2243
8.552	2131
8.56	2017
8.568	1904
8.576	1795
8.584	1692
8.592	1594
8.6	1505
8.608	1428
8.616	1365
8.624	1315
8.632	1275
8.64	1250
8.648	1238
8.656	1235
8.664	1242
8.672	1257
8.68	1278
8.688	1302
8.696	1327
8.704	1353
8.712	1376
8.72	1394
8.728	1410
8.736	1422
8.744	1428
8.752	1430
8.76	1431
8.768	1429
8.776	1421
8.784	1411
8.792	1399
8.8	1384
8.808	1367
8.816	1350
8.824	1332
8.832	1314
8.84	1297
8.848	1281
8.856	1264
8.864	1246
8.872	1230
8.88	1216
8.888	1203
8.896	1191
8.904	1180
8.912	1170
8.92	1161
8.928	1152
8.936	1142
8.944	1133
8.952	1124
8.96	1114
8.968	1105
8.976	1097
8.984	1089
8.992	1081
9	1073
9.008	1065
9.016	1056
9.024	1046
9.032	1038
9.04	1033
9.048	1036
9.056	1054.00000000001
9.064	1100
9.072	1173.00000000002
9.08	1273
9.088	1407.00000000003
9.096	1574
9.104	1764.00000000004
9.112	1965
9.12	2170.00000000004
9.128	2365
9.136	2546.00000000004
9.144	2706
9.152	2835.00000000002
9.16	2928
9.168	2990.00000000001
9.176	3025
9.184	3030
9.192	3006
9.2	2962.99999999999
9.208	2908
9.216	2839.99999999998
9.224	2762
9.232	2677
9.24	2588
9.248	2492
9.256	2390
9.264	2284
9.272	2175
9.28	2064
9.288	1952
9.296	1841
9.304	1734
9.312	1632
9.32	1541
9.328	1461
9.336	1390
9.344	1331
9.352	1288
9.36	1257
9.368	1237
9.376	1229
9.384	1231
9.392	1241
9.4	1258
9.408	1279
9.416	1303
9.424	1328
9.432	1351
9.44	1373
9.448	1392
9.456	1406
9.464	1415
9.472	1420
9.48	1420
9.488	1417
9.496	1412
9.504	1403
9.512	1392
9.52	1378
9.528	1363
9.536	1348
9.544	1331
9.552	1314
9.56	1296
9.568	1277
9.576	1259
9.584	1243
9.592	1227
9.6	1211
9.608	1198
9.616	1186
9.624	1174
9.632	1163
9.64	1153
9.648	1143
9.656	1134
9.664	1124
9.672	1114
9.68	1106
9.688	1099
9.696	1092
9.704	1084
9.712	1075
9.72	1066
9.728	1057
9.736	1048
9.744	1037
9.752	1027
9.76	1020
9.768	1021
9.776	1032
9.784	1057
9.792	1109
9.8	1198
9.808	1318
9.816	1464
9.824	1639
9.832	1835
9.84	2042
9.848	2247
9.856	2440
9.864	2608
9.872	2751
9.88	2868
9.888	2950
9.896	2996
9.904	3013
9.912	3007
9.92	2977
9.928	2927
9.936	2864
9.944	2792
9.952	2711
9.96	2624
9.968	2532
9.976	2435
9.984	2333
9.992	2226
10	2115
10.008	2003.99999999998
10.016	1893
10.024	1785.99999999998
10.032	1683
10.04	1585.99999999998
10.048	1497
10.056	1421.99999999998
10.064	1358
10.072	1304.99999999999
10.08	1266
10.088	1240
10.096	1225
10.104	1220
10.112	1224
10.12	1237
10.128	1257
10.136	1280.00000000001
10.144	1303
10.152	1325
10.16	1347
10.168	1367
10.176	1383
10.184	1394
10.192	1400
10.2	1404
10.208	1404
10.216	1400
10.224	1393
10.232	1384
10.24	1372
10.248	1358
10.256	1343
10.264	1328
10.272	1312
10.28	1295
10.288	1278
10.296	1260
10.304	1243
10.312	1227
10.32	1212
10.328	1199
10.336	1187
10.344	1175
10.352	1164
10.36	1153
10.368	1143
10.376	1132
10.384	1120
10.392	1110
10.4	1101
10.408	1093
10.416	1086
10.424	1078
10.432	1070
10.44	1062
10.448	1054
10.456	1046
10.464	1036
10.472	1026
10.48	1017
10.488	1012
10.496	1014
10.504	1035
10.512	1077
10.52	1142
10.528	1241
10.536	1378
10.544	1543
10.552	1728
10.56	1928
10.568	2130
10.576	2326
10.584	2508
10.592	2665
10.6	2790
10.608	2884
10.616	2950
10.624	2983
10.632	2985
10.64	2964
10.648	2926
10.656	2873
10.664	2807
10.672	2731
10.68	2649
10.688	2561
10.696	2467
10.704	2368
10.712	2265
10.72	2159
10.728	2050
10.736	1940
10.744	1831
10.752	1725
10.76	1626
10.768	1535
10.776	1454
10.784	1384
10.792	1328
10.8	1284
10.808	1251
10.816	1231
10.824	1223
10.832	1225
10.84	1234
10.848	1249
10.856	1269
10.864	1291
10.872	1314
10.88	1336
10.888	1356
10.896	1372
10.904	1385
10.912	1395
10.92	1400
10.928	1402
10.936	1400
10.944	1394
10.952	1385
10.96	1374
10.968	1362
10.976	1349
10.984	1334
10.992	1316
11	1298
11.008	1281
11.016	1265
11.024	1250
11.032	1236
11.04	1222
11.048	1208
11.056	1196
11.064	1186
11.072	1176
11.08	1166
11.088	1157
11.096	1148
11.104	1139
11.112	1132
11.12	1124
11.128	1116
11.136	1107
11.144	1098
11.152	1090
11.16	1083
11.168	1076
11.176	1068
11.184	1059
11.192	1049
11.2	1039
11.208	1033
11.216	1032
11.224	1040
11.232	1067.00000000001
11.24	1124
11.248	1208.00000000002
11.256	1320
11.264	1467
11.272	1643
11.28	1836
11.288	2036
11.296	2236
11.304	2421
11.312	2588
11.32	2732
11.328	2843
11.336	2919
11.344	2966
11.352	2986
11.36	2979
11.368	2949
11.376	2903
11.384	2846
11.392	2777
11.4	2700
11.408	2616
11.416	2528
11.424	2434
11.432	2334
11.44	2230
11.448	2123
11.456	2014
11.464	1905
11.472	1800
11.48	1699
11.488	1605
11.496	1522
11.504	1449
11.512	1386
11.52	1335
11.528	1298
11.536	1273
11.544	1259
11.552	1255
11.56	1261
11.568	1273
11.576	1290
11.584	1310
11.592	1331
11.6	1353
11.608	1373
11.616	1391
11.624	1405
11.632	1416
11.64	1424
11.648	1427
11.656	1426
11.664	1421
11.672	1415
11.68	1406
11.688	1392
11.696	1377
11.704	1363
11.712	1348
11.72	1332
11.728	1316
11.736	1300
11.744	1284
11.752	1268
11.76	1253
11.768	1239
11.776	1225
11.784	1212
11.792	1199
11.8	1187
11.808	1176
11.816	1166
11.824	1157
11.832	1149
11.84	1140
11.848	1130
11.856	1121
11.864	1114
11.872	1106
11.88	1097
11.888	1088
11.896	1078
11.904	1069
11.912	1060
11.92	1050
11.928	1042
11.936	1038
11.944	1046
11.952	1069
11.96	1111
11.968	1181
11.976	1287
11.984	1424
11.992	1585
12	1771
12.008	1970.00000000004
12.016	2171
12.024	2365.00000000004
12.032	2541
12.04	2688.00000000003
12.048	2806
12.056	2897.00000000002
12.064	2955
12.072	2978
12.08	2975
12.088	2953.99999999999
12.096	2912
12.104	2854.99999999999
12.112	2788
12.12	2712.99999999998
12.128	2633
12.136	2545.99999999998
12.144	2453
12.152	2356.99999999998
12.16	2255
12.168	2148.99999999998
12.176	2042
12.184	1933.99999999998
12.192	1828
12.2	1725.99999999998
12.208	1629
12.216	1540.99999999998
12.224	1463
12.232	1396.99999999999
12.24	1343
12.248	1299.99999999999
12.256	1270
12.264	1253
12.272	1247
12.28	1249
12.288	1259
12.296	1276
12.304	1296
12.312	1318
12.32	1340
12.328	1361
12.336	1381
12.344	1398
12.352	1411
12.36	1420
12.368	1425
12.376	1428
12.384	1426
12.392	1420
12.4	1411
12.408	1401
12.416	1389
12.424	1375
12.432	1360
12.44	1343
12.448	1326
12.456	1309
12.464	1293
12.472	1278
12.48	1264
12.488	1251
12.496	1239
12.504	1228
12.512	1216
12.52	1203
12.528	1191
12.536	1180
12.544	1169
12.552	1158
12.56	1147
12.568	1138
12.576	1128
12.584	1118
12.592	1108
12.6	1098
12.608	1088
12.616	1078
12.624	1069
12.632	1060
12.64	1049
12.648	1040
12.656	1034
12.664	1034
12.672	1047
12.68	1088
12.688	1154
12.696	1244
12.704	1368
12.712	1526
12.72	1707
12.728	1902
12.736	2102
12.744	2293
12.752	2471
12.76	2629
12.768	2757
12.776	2850
12.784	2913
12.792	2951
12.8	2959
12.808	2941
12.816	2905
12.824	2855
12.832	2792
12.84	2718
12.848	2637
12.856	2552
12.864	2462
12.872	2365
12.88	2263
12.888	2158
12.896	2050
12.904	1941
12.912	1833
12.92	1729
12.928	1632
12.936	1543
12.944	1462
12.952	1391
12.96	1334
12.968	1289
12.976	1257
12.984	1237
12.992	1228
13	1229
13.008	1239
13.016	1254
13.024	1273
13.032	1296
13.04	1320.00000000001
13.048	1344
13.056	1366
13.064	1383
13.072	1397
13.08	1408
13.088	1414
13.096	1415
13.104	1413
13.112	1408
13.12	1400
13.128	1391
13.136	1380
13.144	1366
13.152	1351
13.16	1336
13.168	1320
13.176	1304
13.184	1288
13.192	1274
13.2	1261
13.208	1247
13.216	1234
13.224	1222
13.232	1211
13.24	1201
13.248	1190
13.256	1178
13.264	1167
13.272	1158
13.28	1148
13.288	1138
13.296	1129
13.304	1121
13.312	1113
13.32	1105
13.328	1098
13.336	1090
13.344	1081
13.352	1072
13.36	1062
13.368	1053
13.376	1048
13.384	1053
13.392	1071
13.4	1106
13.408	1168
13.416	1265
13.424	1392
13.432	1542
13.44	1717
13.448	1908
13.456	2104
13.464	2295
13.472	2471
13.48	2621
13.488	2745
13.496	2844
13.504	2911
13.512	2945
13.52	2952
13.528	2938
13.536	2904
13.544	2853
13.552	2790
13.56	2718
13.568	2639
13.576	2553
13.584	2461
13.592	2366
13.6	2266
13.608	2161
13.616	2054
13.624	1946
13.632	1838
13.64	1735
13.648	1639
13.656	1550
13.664	1471
13.672	1405
13.68	1350
13.688	1305
13.696	1275
13.704	1258
13.712	1250
13.72	1251
13.728	1261
13.736	1278
13.744	1299
13.752	1322
13.76	1345
13.768	1366
13.776	1384
13.784	1401
13.792	1414
13.8	1421
13.808	1427
13.816	1431
13.824	1430
13.832	1423
13.84	1414
13.848	1404
13.856	1392
13.864	1379
13.872	1367
13.88	1353
13.888	1337
13.896	1321
13.904	1305
13.912	1290
13.92	1275
13.928	1261
13.936	1248
13.944	1236
13.952	1225
13.96	1215
13.968	1205
13.976	1195
13.984	1185
13.992	1175
14	1165
14.008	1155
14.016	1146
14.024	1136
14.032	1127
14.04	1121
14.048	1115
14.056	1107
14.064	1098
14.072	1088
14.08	1077
14.088	1069
14.096	1065
14.104	1070
14.112	1091
14.12	1139.00000000001
14.128	1212
14.136	1311.00000000003
14.144	1445
14.152	1609.00000000004
14.16	1793
14.168	1987.00000000004
14.176	2183
14.184	2367.00000000004
14.192	2537
14.2	2688.00000000003
14.208	2807
14.216	2891.00000000001
14.224	2946
14.232	2975
14.24	2977
14.248	2952.99999999999
14.256	2912
14.264	2858.99999999999
14.272	2794
14.28	2717.99999999998
14.288	2635
14.296	2547.99999999998
14.304	2454
14.312	2353.99999999998
14.32	2250
14.328	2142.99999999998
14.336	2035
14.344	1927
14.352	1821
14.36	1720
14.368	1625
14.376	1540
14.384	1464
14.392	1399
14.4	1348
14.408	1309
14.416	1282
14.424	1266
14.432	1261
14.44	1266
14.448	1279
14.456	1299
14.464	1322
14.472	1345
14.48	1369
14.488	1392
14.496	1411
14.504	1426
14.512	1437
14.52	1445
14.528	1449
14.536	1449
14.544	1445
14.552	1438
14.56	1428
14.568	1416
14.576	1403
14.584	1390
14.592	1375
14.6	1360
14.608	1344
14.616	1328
14.624	1313
14.632	1300
14.64	1286
14.648	1272
14.656	1259
14.664	1247
14.672	1235
14.68	1224
14.688	1213
14.696	1202
14.704	1191
14.712	1182
14.72	1172
14.728	1162
14.736	1153
14.744	1145
14.752	1137
14.76	1129
14.768	1121
14.776	1113
14.784	1105
14.792	1096
14.8	1086
14.808	1079
14.816	1078
14.824	1090
14.832	1119
14.84	1169
14.848	1250
14.856	1369
14.864	1518
14.872	1687
14.88	1877
14.888	2075
14.896	2273
14.904	2461
14.912	2627
14.92	2761
14.928	2868
14.936	2949
14.944	2997
14.952	3013
14.96	3005
14.968	2978
14.976	2932
14.984	2871
14.992	2800
15	2722
15.008	2636.99999999998
15.016	2544
15.024	2444.99999999998
15.032	2345
15.04	2240.99999999998
15.048	2132
15.056	2020.99999999998
15.064	1913
15.072	1807.99999999998
15.08	1708
15.088	1613.99999999998
15.096	1528
15.104	1453.99999999999
15.112	1394
15.12	1345.99999999999
15.128	1309
15.136	1287
15.144	1278
15.152	1277
15.16	1285
15.168	1300
15.176	1319
15.184	1342.00000000001
15.192	1365
15.2	1388
15.208	1407
15.216	1424
15.224	1438
15.232	1448
15.24	1453
15.248	1455
15.256	1454
15.264	1449
15.272	1442
15.28	1432
15.288	1421
15.296	1408
15.304	1392
15.312	1376
15.32	1360
15.328	1344
15.336	1328
15.344	1312
15.352	1297
15.36	1284
15.368	1271
15.376	1259
15.384	1246
15.392	1233
15.4	1222
15.408	1211
15.416	1202
15.424	1193
15.432	1184
15.44	1174
15.448	1164
15.456	1154
15.464	1145
15.472	1136
15.48	1126
15.488	1117
15.496	1108
15.504	1098
15.512	1088
15.52	1079
15.528	1076
15.536	1080
15.544	1097
15.552	1136
15.56	1206
15.568	1306
15.576	1433
15.584	1592
15.592	1775
15.6	1973
15.608	2175
15.616	2371
15.624	2548
15.632	2702
15.64	2832
15.648	2930
15.656	2991
15.664	3022
15.672	3029
15.68	3012
15.688	2972
15.696	2918
15.704	2855
15.712	2782
15.72	2699
15.728	2611
15.736	2518
15.744	2417
15.752	2311
15.76	2202
15.768	2091
15.776	1980
15.784	1870
15.792	1765
15.8	1666
15.808	1574
15.816	1495
15.824	1427
15.832	1369
15.84	1325
15.848	1296
15.856	1278
15.864	1269
15.872	1272
15.88	1283
15.888	1300
15.896	1321
15.904	1344
15.912	1365
15.92	1387
15.928	1407
15.936	1422
15.944	1432
15.952	1439
15.96	1444
15.968	1444
15.976	1440
15.984	1434
15.992	1426
16	1416
16.008	1403
16.016	1388.99999999999
16.024	1374
16.032	1357
16.04	1340
16.048	1321.99999999999
16.056	1306
16.064	1291
16.072	1277
16.08	1263.99999999999
16.088	1251
16.096	1240
16.104	1228
16.112	1215.99999999999
16.12	1205
16.128	1195
16.136	1185
16.144	1175
16.152	1166
16.16	1156
16.168	1146
16.176	1137
16.184	1130
16.192	1122
16.2	1113
16.208	1105
16.216	1095
16.224	1083
16.232	1073
16.24	1066
16.248	1063
16.256	1071
16.264	1101
16.272	1154.00000000003
16.28	1231
16.288	1343
16.296	1490
16.304	1663.00000000008
16.312	1854
16.32	2056
16.328	2257
16.336	2450.00000000008
16.344	2624
16.352	2770
16.36	2882
16.368	2964.00000000003
16.376	3019
16.384	3043
16.392	3038
16.4	3010
16.408	2966
16.416	2907
16.424	2835
16.432	2755
16.44	2670
16.448	2578
16.456	2480
16.464	2378
16.472	2273
16.48	2108
16.488	1996
16.496	1885
16.504	1680
16.512	1590
16.52	1509
16.528	1380
16.536	1336
16.544	1303
16.552	1272
16.56	1272
16.568	1281
16.576	1304
16.584	1324
16.592	1346
16.6	1368
16.608	1388
16.616	1405
16.624	1419
16.632	1429
16.64	1435
16.648	1436
16.656	1433
16.664	1428
16.672	1419
16.68	1408
16.688	1395
16.696	1382
16.704	1367
16.712	1352
16.72	1336
16.728	1320
16.736	1305
16.744	1291
16.752	1276
16.76	1261
16.768	1247
16.776	1233
16.784	1221
16.792	1210
16.8	1198
16.808	1186
16.816	1175
16.824	1165
16.832	1155
16.84	1146
16.848	1136
16.856	1126
16.864	1117
16.872	1109
16.88	1101
16.888	1092
16.896	1082
16.904	1071
16.912	1060
16.92	1050
16.928	1044
16.936	1049
16.944	1067
16.952	1103
16.96	1169
16.968	1272
16.976	1404
16.984	1562
16.992	1748
17	1949
17.008	2156
17.016	2359.00000000009
17.024	2546
17.032	2704
17.04	2835
17.048	2939.00000000004
17.056	3010
17.064	3045
17.072	3052
17.08	3037.99999999999
17.088	3002
17.096	2947
17.104	2882
17.112	2808.99999999997
17.12	2727
17.128	2636
17.136	2540
17.144	2440.99999999995
17.152	2337
17.16	2227
17.168	2114
17.176	1999.99999999995
17.184	1887
17.192	1779
17.2	1676
17.208	1579.99999999996
17.216	1496
17.224	1426
17.232	1367
17.24	1319.99999999998
17.248	1286
17.256	1266
17.264	1258
17.272	1259
17.28	1269
17.288	1285
17.296	1306
17.304	1329.00000000001
17.312	1353
17.32	1375
17.328	1394
17.336	1410.00000000001
17.344	1423
17.352	1432
17.36	1437
17.368	1439
17.376	1437
17.384	1433
17.392	1426
17.4	1414.99999999999
17.408	1402
17.416	1386
17.424	1370
17.432	1355
17.44	1339
17.448	1322
17.456	1305
17.464	1289
17.472	1274
17.48	1260
17.488	1246
17.496	1233
17.504	1221
17.512	1208
17.52	1196
17.528	1185
17.536	1175
17.544	1165
17.552	1154
17.56	1143
17.568	1134
17.576	1125
17.584	1117
17.592	1109
17.6	1100
17.608	1089
17.616	1080
17.624	1070
17.632	1059
17.64	1054
17.648	1053
17.656	1061
17.664	1088
17.672	1144
17.68	1228
17.688	1341
17.696	1491
17.704	1671
17.712	1870
17.72	2077
17.728	2286
17.736	2480
17.744	2654
17.752	2805
17.76	2923
17.768	3003
17.776	3051
17.784	3073
17.792	3067
17.8	3035
17.808	2987
17.816	2929
17.824	2859
17.832	2779
17.84	2693
17.848	2602
17.856	2504
17.864	2399
17.872	2291
17.88	2181
17.888	2068
17.896	1953
17.904	1840
17.912	1731
17.92	1630
17.928	1539
17.936	1460
17.944	1392
17.952	1338
17.96	1299
17.968	1273
17.976	1257
17.984	1252
17.992	1257
18	1271
18.008	1289
18.016	1310.00000000001
18.024	1332
18.032	1355
18.04	1378
18.048	1397.00000000001
18.056	1412
18.064	1422
18.072	1429
18.08	1432
18.088	1430
18.096	1425
18.104	1418
18.112	1407.99999999999
18.12	1395
18.128	1381
18.136	1366
18.144	1348.99999999999
18.152	1332
18.16	1314
18.168	1298
18.176	1281.99999999999
18.184	1266
18.192	1251
18.2	1238
18.208	1225.99999999999
18.216	1214
18.224	1203
18.232	1193
18.24	1181.99999999999
18.248	1170
18.256	1159
18.264	1149
18.272	1139
18.28	1128
18.288	1116
18.296	1107
18.304	1100
18.312	1091
18.32	1081
18.328	1071
18.336	1061
18.344	1051
18.352	1041
18.36	1033
18.368	1032
18.376	1047
18.384	1081
18.392	1136
18.4	1223.00000000005
18.408	1349
18.416	1506
18.424	1686
18.432	1886.00000000009
18.44	2094
18.448	2301
18.456	2497
18.464	2670
18.472	2809
18.48	2919
18.488	3000
18.496	3045
18.504	3057
18.512	3044
18.52	3012
18.528	2962
18.536	2897
18.544	2822
18.552	2741
18.56	2654
18.568	2558
18.576	2459
18.584	2357
18.592	2248
18.6	2133
18.608	2017
18.616	1902
18.624	1787
18.632	1678
18.64	1577
18.648	1487
18.656	1409
18.664	1345
18.672	1295
18.68	1257
18.688	1232
18.696	1221
18.704	1222
18.712	1230
18.72	1247
18.728	1270
18.736	1294
18.744	1319
18.752	1344
18.76	1365
18.768	1383
18.776	1397
18.784	1407
18.792	1413
18.8	1414
18.808	1411
18.816	1406
18.824	1398
18.832	1387
18.84	1374
18.848	1359
18.856	1343
18.864	1326
18.872	1308
18.88	1291
18.888	1275
18.896	1259
18.904	1244
18.912	1228
18.92	1212
18.928	1197
18.936	1184
18.944	1172
18.952	1161
18.96	1151
18.968	1142
18.976	1132
18.984	1122
18.992	1113
19	1104
19.008	1094
19.016	1085
19.024	1077
19.032	1069
19.04	1061
19.048	1052
19.056	1042
19.064	1032
19.072	1021
19.08	1014
19.088	1013
19.096	1023
19.104	1051
19.112	1110.00000000003
19.12	1198
19.128	1315
19.136	1467
19.144	1647.00000000008
19.152	1847
19.16	2055
19.168	2261
19.176	2451.00000000008
19.184	2622
19.192	2769
19.2	2883
19.208	2959.00000000003
19.216	3004
19.224	3024
19.232	3016
19.24	2982.99999999998
19.248	2933
19.256	2872
19.264	2800
19.272	2716.99999999996
19.28	2628
19.288	2535
19.296	2436
19.304	2328.99999999995
19.312	2218
19.32	2104
19.328	1990
19.336	1876.99999999995
19.344	1767
19.352	1662
19.36	1564
19.368	1476.99999999996
19.376	1402
19.384	1338
19.392	1287
19.4	1251.99999999999
19.408	1229
19.416	1218
19.424	1218
19.432	1227.00000000001
19.44	1244
19.448	1265
19.456	1290
19.464	1314
19.472	1337
19.48	1359
19.488	1379
19.496	1395
19.504	1406
19.512	1413
19.52	1417
19.528	1416
19.536	1409
19.544	1400
19.552	1388
19.56	1374
19.568	1359
19.576	1344
19.584	1328
19.592	1311
19.6	1294
19.608	1277
19.616	1262
19.624	1247
19.632	1233
19.64	1220
19.648	1207
19.656	1195
19.664	1184
19.672	1173
19.68	1162
19.688	1151
19.696	1142
19.704	1132
19.712	1122
19.72	1112
19.728	1102
19.736	1093
19.744	1085
19.752	1077
19.76	1069
19.768	1061
19.776	1053
19.784	1043
19.792	1032
19.8	1024
19.808	1024
19.816	1041
19.824	1075
19.832	1130
19.84	1217
19.848	1343
19.856	1501
19.864	1681
19.872	1880
19.88	2086
19.888	2291
19.896	2485
19.904	2657
19.912	2798
19.92	2908
19.928	2988
19.936	3034
19.944	3047
19.952	3035
19.96	3004
19.968	2954
19.976	2889
19.984	2815
19.992	2734
20	2644
20.008	2547
20.016	2445.99999999995
20.024	2341
20.032	2232
20.04	2118
20.048	2002.99999999995
20.056	1891
20.064	1782
20.072	1678
20.08	1580.99999999996
20.088	1495
20.096	1421
20.104	1361
20.112	1313.99999999998
20.12	1278
20.128	1256
20.136	1246
20.144	1245
20.152	1253
20.16	1269
20.168	1290
20.176	1313.00000000001
20.184	1337
20.192	1359
20.2	1379
20.208	1397.00000000001
20.216	1411
20.224	1421
20.232	1426
20.24	1427
20.248	1426
20.256	1421
20.264	1414
20.272	1404
20.28	1392
20.288	1378
20.296	1362
20.304	1344.99999999999
20.312	1329
20.32	1312
20.328	1294
20.336	1276.99999999999
20.344	1262
20.352	1247
20.36	1233
20.368	1220.99999999999
20.376	1210
20.384	1198
20.392	1186
20.4	1175
20.408	1166
20.416	1156
20.424	1146
20.432	1137
20.44	1128
20.448	1117
20.456	1107
20.464	1098
20.472	1089
20.48	1081
20.488	1072
20.496	1062
20.504	1051
20.512	1041
20.52	1037
20.528	1041
20.536	1058
20.544	1096
20.552	1167
20.56	1269
20.568	1399
20.576	1563
20.584	1754
20.592	1960
20.6	2170
20.608	2374
20.616	2559
20.624	2722
20.632	2858
20.64	2959
20.648	3022
20.656	3054
20.664	3063
20.672	3046
20.68	3004
20.688	2947
20.696	2881
20.704	2805
20.712	2720
20.72	2628
20.728	2532
20.736	2432
20.744	2326
20.752	2215
20.76	2103
20.768	1990
20.776	1878
20.784	1769
20.792	1666
20.8	1572
20.808	1490
20.816	1418
20.824	1358
20.832	1312
20.84	1280
20.848	1261
20.856	1253
20.864	1255
20.872	1266
20.88	1284
20.888	1306
20.896	1330
20.904	1353
20.912	1375
20.92	1395
20.928	1410
20.936	1420
20.944	1428
20.952	1433
20.96	1433
20.968	1429
20.976	1423
20.984	1415
20.992	1404
21	1390
21.008	1374
21.016	1356.99999999999
21.024	1340
21.032	1322
21.04	1305
21.048	1288.99999999999
21.056	1273
21.064	1257
21.072	1242
21.08	1227.99999999999
21.088	1215
21.096	1203
21.104	1191
21.112	1180
21.12	1169
21.128	1159
21.136	1149
21.144	1139
21.152	1130
21.16	1120
21.168	1110
21.176	1101
21.184	1093
21.192	1085
21.2	1077
21.208	1068
21.216	1057
21.224	1047
21.232	1039
21.24	1035
21.248	1040
21.256	1065
21.264	1113
21.272	1185.00000000004
21.28	1291
21.288	1435
21.296	1609
21.304	1803.00000000009
21.312	2011
21.32	2219
21.328	2419
21.336	2604.00000000008
21.344	2762
21.352	2883
21.36	2973
21.368	3037.00000000002
21.376	3067
21.384	3065
21.392	3041
21.4	3000.99999999998
21.408	2945
21.416	2875
21.424	2796
21.432	2710.99999999996
21.44	2621
21.448	2523
21.456	2419
21.464	2311.99999999995
21.472	2199
21.48	2083
21.488	1967
21.496	1851.99999999995
21.504	1741
21.512	1640
21.52	1547
21.528	1464
21.536	1393
21.544	1337
21.552	1294
21.56	1263
21.568	1246
21.576	1241
21.584	1247
21.592	1259
21.6	1277
21.608	1299
21.616	1323
21.624	1349
21.632	1373
21.64	1392
21.648	1408
21.656	1420
21.664	1426
21.672	1428
21.68	1427
21.688	1423
21.696	1416
21.704	1406
21.712	1393
21.72	1379
21.728	1364
21.736	1347
21.744	1329
21.752	1312
21.76	1295
21.768	1278
21.776	1261
21.784	1247
21.792	1234
21.8	1220
21.808	1207
21.816	1195
21.824	1183
21.832	1172
21.84	1162
21.848	1152
21.856	1142
21.864	1132
21.872	1123
21.88	1116
21.888	1107
21.896	1098
21.904	1090
21.912	1082
21.92	1072
21.928	1061
21.936	1050
21.944	1038
21.952	1029
21.96	1028
21.968	1035
21.976	1057
21.984	1104
21.992	1187
22	1302
22.008	1444
22.016	1618.00000000008
22.024	1815
22.032	2025
22.04	2236
22.048	2436.00000000008
22.056	2614
22.064	2768
22.072	2894
22.08	2985.00000000003
22.088	3039
22.096	3063
22.104	3064
22.112	3038.99999999999
22.12	2993
22.128	2933
22.136	2864
22.144	2785.99999999996
22.152	2699
22.16	2607
22.168	2510
22.176	2404.99999999995
22.184	2295
22.192	2182
22.2	2068
22.208	1952.99999999995
22.216	1841
22.224	1734
22.232	1632
22.24	1538.99999999996
22.248	1460
22.256	1392
22.264	1335
22.272	1292.99999999999
22.28	1266
22.288	1251
22.296	1246
22.304	1249
22.312	1261
22.32	1279
22.328	1301
22.336	1325.00000000001
22.344	1348
22.352	1369
22.36	1388
22.368	1402
22.376	1411
22.384	1418
22.392	1421
22.4	1420
22.408	1415
22.416	1407
22.424	1397
22.432	1384.99999999999
22.44	1370
22.448	1353
22.456	1336
22.464	1317.99999999999
22.472	1301
22.48	1284
22.488	1266
22.496	1249.99999999999
22.504	1235
22.512	1221
22.52	1208
22.528	1196
22.536	1185
22.544	1175
22.552	1165
22.56	1155
22.568	1145
22.576	1135
22.584	1126
22.592	1116
22.6	1106
22.608	1097
22.616	1089
22.624	1082
22.632	1074
22.64	1065
22.648	1056
22.656	1045
22.664	1035
22.672	1026
22.68	1021
22.688	1026
22.696	1049
22.704	1093
22.712	1161
22.72	1264
22.728	1405
22.736	1576
22.744	1766
22.752	1973
22.76	2183
22.768	2386
22.776	2573
22.784	2735
22.792	2861
22.8	2955
22.808	3022
22.816	3055
22.824	3056
22.832	3033
22.84	2994
22.848	2938
22.856	2869
22.864	2791
22.872	2707
22.88	2617
22.888	2519
22.896	2416
22.904	2310
22.912	2200
22.92	2086
22.928	1971
22.936	1858
22.944	1748
22.952	1647
22.96	1555
22.968	1471
22.976	1399
22.984	1342
22.992	1297
23	1265
23.008	1247
23.016	1240
23.024	1243
23.032	1255
23.04	1273
23.048	1295.00000000001
23.056	1320
23.064	1346
23.072	1369
23.08	1389.00000000001
23.088	1407
23.096	1422
23.104	1432
23.112	1436
23.12	1435
23.128	1431
23.136	1424
23.144	1414
23.152	1402
23.16	1388
23.168	1372
23.176	1355.99999999999
23.184	1340
23.192	1324
23.2	1307
23.208	1289.99999999999
23.216	1273
23.224	1257
23.232	1242
23.24	1226.99999999999
23.248	1214
23.256	1202
23.264	1190
23.272	1177.99999999999
23.28	1166
23.288	1155
23.296	1145
23.304	1135
23.312	1126
23.32	1116
23.328	1107
23.336	1100
23.344	1092
23.352	1085
23.36	1079
23.368	1071
23.376	1062
23.384	1053
23.392	1046
23.4	1046
23.408	1055
23.416	1078
23.424	1126
23.432	1209.00000000004
23.44	1323
23.448	1465
23.456	1639
23.464	1836.00000000009
23.472	2046
23.48	2258
23.488	2459
23.496	2637.00000000007
23.504	2791
23.512	2918
23.52	3009
23.528	3063.00000000001
23.536	3087
23.544	3088
23.552	3063
23.56	3018
23.568	2959
23.576	2891
23.584	2813
23.592	2726
23.6	2633
23.608	2537
23.616	2435
23.624	2326
23.632	2213
23.64	2100
23.648	1986
23.656	1874
23.664	1766
23.672	1665
23.68	1574
23.688	1494
23.696	1425
23.704	1368
23.712	1325
23.72	1297
23.728	1280
23.736	1273
23.744	1278
23.752	1290
23.76	1307
23.768	1328
23.776	1350
23.784	1372
23.792	1392
23.8	1409
23.808	1424
23.816	1434
23.824	1439
23.832	1442
23.84	1442
23.848	1438
23.856	1430
23.864	1419
23.872	1406
23.88	1391
23.888	1376
23.896	1359
23.904	1343
23.912	1327
23.92	1309
23.928	1291
23.936	1274
23.944	1258
23.952	1244
23.96	1230
23.968	1217
23.976	1206
23.984	1195
23.992	1185
24	1174
24.008	1163
24.016	1154
24.024	1144
24.032	1133
24.04	1123
24.048	1114
24.056	1105
24.064	1097
24.072	1089
24.08	1081
24.088	1072
24.096	1062
24.104	1052
24.112	1042
24.12	1037
24.128	1042
24.136	1065
24.144	1110.00000000002
24.152	1178
24.16	1281
24.168	1423
24.176	1593.00000000008
24.184	1783
24.192	1990
24.2	2198
24.208	2400.00000000009
24.216	2588
24.224	2749
24.232	2875
24.24	2970.00000000004
24.248	3037
24.256	3070
24.264	3070
24.272	3047.99999999999
24.28	3010
24.288	2956
24.296	2888
24.304	2811.99999999996
24.312	2730
24.32	2640
24.328	2542
24.336	2439.99999999995
24.344	2334
24.352	2222
24.36	2107
24.368	1991.99999999995
24.376	1879
24.384	1770
24.392	1667
24.4	1572.99999999996
24.408	1489
24.416	1417
24.424	1359
24.432	1314.99999999998
24.44	1282
24.448	1262
24.456	1256
24.464	1260
24.472	1271
24.48	1288
24.488	1309
24.496	1333.00000000001
24.504	1356
24.512	1378
24.52	1397
24.528	1412.00000000001
24.536	1422
24.544	1427
24.552	1429
24.56	1428
24.568	1424
24.576	1417
24.584	1407
24.592	1395
24.6	1382
24.608	1367
24.616	1351
24.624	1333
24.632	1314
24.64	1294
24.648	1275
24.656	1258
24.664	1241
24.672	1225
24.68	1210
24.688	1196
24.696	1183
24.704	1173
24.712	1165
24.72	1157
24.728	1149
24.736	1141
24.744	1133
24.752	1126
24.76	1118
24.768	1109
24.776	1101
24.784	1093
24.792	1085
24.8	1076
24.808	1064
24.816	1052
24.824	1041
24.832	1031
24.84	1026
24.848	1029
24.856	1046
24.864	1084
24.872	1156
24.88	1258
24.888	1387
24.896	1549
24.904	1736
24.912	1939
24.92	2147
24.928	2349
24.936	2532
24.944	2691
24.952	2825
24.96	2925
24.968	2987
24.976	3019
24.984	3027
24.992	3009
25	2969
25.008	2913
25.016	2845.99999999997
25.024	2769
25.032	2684
25.04	2592
25.048	2495.99999999996
25.056	2395
25.064	2288
25.072	2176
25.08	2062.99999999995
25.088	1950
25.096	1838
25.104	1729
25.112	1626.99999999996
25.12	1534
25.128	1452
25.136	1382
25.144	1323.99999999998
25.152	1280
25.16	1251
25.168	1235
25.176	1228
25.184	1231
25.192	1244
25.2	1262
25.208	1285.00000000001
25.216	1312
25.224	1337
25.232	1360
25.24	1380.00000000001
25.248	1397
25.256	1410
25.264	1418
25.272	1422
25.28	1422
25.288	1419
25.296	1414
25.304	1405
25.312	1393
25.32	1378
25.328	1362
25.336	1345.99999999999
25.344	1329
25.352	1312
25.36	1294
25.368	1276.99999999999
25.376	1262
25.384	1247
25.392	1233
25.4	1219.99999999999
25.408	1207
25.416	1195
25.424	1183
25.432	1170.99999999999
25.44	1160
25.448	1149
25.456	1139
25.464	1130
25.472	1121
25.48	1113
25.488	1105
25.496	1097
25.504	1089
25.512	1081
25.52	1073
25.528	1065
25.536	1056
25.544	1046
25.552	1038
25.56	1033
25.568	1036
25.576	1058
25.584	1101
25.592	1167.00000000004
25.6	1267
25.608	1406
25.616	1573
25.624	1759
25.632	1960
25.64	2164
25.648	2363
25.656	2547
25.664	2705
25.672	2829
25.68	2922
25.688	2987
25.696	3021
25.704	3024
25.712	3003
25.72	2966
25.728	2911
25.736	2843
25.744	2766
25.752	2681
25.76	2590
25.768	2491
25.776	2388
25.784	2281
25.792	2170
25.8	2055
25.808	1940
25.816	1828
25.824	1721
25.832	1622
25.84	1532
25.848	1452
25.856	1383
25.864	1330
25.872	1290
25.88	1260
25.888	1243
25.896	1240
25.904	1246
25.912	1259
25.92	1279
25.928	1302
25.936	1325
25.944	1349
25.952	1372
25.96	1391
25.968	1407
25.976	1419
25.984	1426
25.992	1427
26	1426
26.008	1422
26.016	1414
26.024	1403
26.032	1391
26.04	1378
26.048	1361.99999999999
26.056	1345
26.064	1329
26.072	1312
26.08	1293.99999999999
26.088	1277
26.096	1261
26.104	1246
26.112	1231.99999999999
26.12	1219
26.128	1207
26.136	1195
26.144	1182.99999999999
26.152	1172
26.16	1163
26.168	1155
26.176	1146
26.184	1136
26.192	1126
26.2	1117
26.208	1109
26.216	1101
26.224	1092
26.232	1082
26.24	1073
26.248	1065
26.256	1056
26.264	1046
26.272	1038
26.28	1036
26.288	1043
26.296	1065
26.304	1112.00000000003
26.312	1194
26.32	1307
26.328	1448
26.336	1618.00000000008
26.344	1810
26.352	2015
26.36	2221
26.368	2417.00000000008
26.376	2590
26.384	2738
26.392	2860
26.4	2948.00000000003
26.408	3000
26.416	3023
26.424	3023
26.432	2997.99999999999
26.44	2952
26.448	2893
26.456	2825
26.464	2745.99999999996
26.472	2658
26.48	2566
26.488	2470
26.496	2366.99999999995
26.504	2259
26.512	2148
26.52	2035
26.528	1921.99999999995
26.536	1811
26.544	1705
26.552	1606
26.56	1515.99999999996
26.568	1439
26.576	1375
26.584	1322
26.592	1282.99999999999
26.6	1259
26.608	1246
26.616	1243
26.624	1251
26.632	1266
26.64	1285
26.648	1308
26.656	1333
26.664	1358
26.672	1379
26.68	1397
26.688	1412
26.696	1422
26.704	1428
26.712	1431
26.72	1429
26.728	1423
26.736	1415
26.744	1404
26.752	1382
26.76	1365
26.768	1349
26.776	1315
26.784	1297
26.792	1281
26.8	1257
26.808	1241
26.816	1226
26.824	1212
26.832	1194
26.84	1184
26.848	1174
26.856	1154
26.864	1144
26.872	1136
26.88	1123
26.888	1114
26.896	1105
26.904	1097
26.912	1089
26.92	1080
26.928	1070
26.936	1060
26.944	1049
26.952	1039
26.96	1032
26.968	1031
26.976	1042
26.984	1074
26.992	1129
27	1211
27.008	1327
27.016	1477.00000000007
27.024	1654
27.032	1848
27.04	2053
27.048	2254.00000000009
27.056	2444
27.064	2617
27.072	2761
27.08	2869.00000000004
27.088	2946
27.096	2994
27.104	3011
27.112	3000.99999999999
27.12	2970
27.128	2924
27.136	2864
27.144	2791.99999999997
27.152	2712
27.16	2626
27.168	2533
27.176	2433.99999999995
27.184	2330
27.192	2223
27.2	2112
27.208	1998.99999999995
27.216	1889
27.224	1780
27.232	1675
27.24	1580.99999999996
27.248	1497
27.256	1422
27.264	1359
27.272	1312.99999999998
27.28	1279
27.288	1255
27.296	1244
27.304	1244
27.312	1252
27.32	1266
27.328	1286
27.336	1309.00000000001
27.344	1332
27.352	1353
27.36	1374
27.368	1391.00000000001
27.376	1405
27.384	1415
27.392	1419
27.4	1418
27.408	1413
27.416	1407
27.424	1399
27.432	1387.99999999999
27.44	1375
27.448	1361
27.456	1346
27.464	1329.99999999999
27.472	1312
27.48	1294
27.488	1277
27.496	1260.99999999999
27.504	1246
27.512	1232
27.52	1219
27.528	1206.99999999999
27.536	1195
27.544	1184
27.552	1173
27.56	1162
27.568	1151
27.576	1142
27.584	1132
27.592	1122
27.6	1112
27.608	1103
27.616	1096
27.624	1087
27.632	1079
27.64	1071
27.648	1062
27.656	1051
27.664	1040
27.672	1030
27.68	1023
27.688	1026
27.696	1040
27.704	1071
27.712	1129
27.72	1224
27.728	1351
27.736	1504
27.744	1684
27.752	1882
27.76	2087
27.768	2289
27.776	2477
27.784	2638
27.792	2771
27.8	2877
27.808	2948
27.816	2983
27.824	2992
27.832	2981
27.84	2949
27.848	2898
27.856	2835
27.864	2764
27.872	2683
27.88	2595
27.888	2502
27.896	2403
27.904	2299
27.912	2190
27.92	2078
27.928	1966
27.936	1854
27.944	1746
27.952	1644
27.96	1549
27.968	1464
27.976	1392
27.984	1332
27.992	1284
28	1251
28.008	1233
28.016	1227
28.024	1229
28.032	1239
28.04	1256
28.048	1277.00000000001
28.056	1302
28.064	1326
28.072	1348
28.08	1369.00000000001
28.088	1387
28.096	1400
28.104	1408
28.112	1412
28.12	1413
28.128	1410
28.136	1402
28.144	1392
28.152	1380
28.16	1366
28.168	1350
28.176	1332.99999999999
28.184	1317
28.192	1301
28.2	1284
28.208	1266.99999999999
28.216	1252
28.224	1237
28.232	1224
28.24	1210.99999999999
28.248	1199
28.256	1187
28.264	1176
28.272	1166
28.28	1156
28.288	1146
28.296	1137
28.304	1128
28.312	1118
28.32	1108
28.328	1097
28.336	1087
28.344	1079
28.352	1071
28.36	1062
28.368	1052
28.376	1042
28.384	1032
28.392	1024
28.4	1020
28.408	1023
28.416	1042
28.424	1088
28.432	1161.00000000004
28.44	1261
28.448	1396
28.456	1564
28.464	1754.00000000009
28.472	1955
28.48	2160
28.488	2353
28.496	2530.00000000007
28.504	2685
28.512	2810
28.52	2897
28.528	2954.00000000002
28.536	2985
28.544	2987
28.552	2963
28.56	2920.99999999998
28.568	2867
28.576	2802
28.584	2726
28.592	2643.99999999996
28.6	2557
28.608	2464
28.616	2363
28.624	2257.99999999995
28.632	2150
28.64	2039
28.648	1928
28.656	1817.99999999995
28.664	1714
28.672	1617
28.68	1530
28.688	1452
28.696	1383
28.704	1328
28.712	1288
28.72	1261
28.728	1245
28.736	1240
28.744	1245
28.752	1258
28.76	1275
28.768	1296
28.776	1318
28.784	1340
28.792	1360
28.8	1378
28.808	1392
28.816	1402
28.824	1410
28.832	1414
28.84	1413
28.848	1409
28.856	1403
28.864	1394
28.872	1381
28.88	1368
28.888	1354
28.896	1338
28.904	1320
28.912	1303
28.92	1288
28.928	1272
28.936	1256
28.944	1241
28.952	1228
28.96	1215
28.968	1203
28.976	1192
28.984	1181
28.992	1171
29	1162
29.008	1152
29.016	1142
29.024	1134
29.032	1126
29.04	1117
29.048	1109
29.056	1102
29.064	1095
29.072	1089
29.08	1082
29.088	1072
29.096	1062
29.104	1052
29.112	1044
29.12	1043
29.128	1057
29.136	1085
29.144	1132.00000000003
29.152	1210
29.16	1326
29.168	1473
29.176	1643.00000000008
29.184	1834
29.192	2034
29.2	2235
29.208	2428.00000000008
29.216	2600
29.224	2740
29.232	2850
29.24	2933.00000000003
29.248	2983
29.256	3000
29.264	2991
29.272	2962.99999999998
29.28	2917
29.288	2857
29.296	2788
29.304	2711.99999999996
29.312	2628
29.32	2537
29.328	2442
29.336	2341.99999999995
29.344	2238
29.352	2130
29.36	2020
29.368	1909.99999999995
29.376	1802
29.384	1701
29.392	1609
29.4	1524.99999999996
29.408	1451
29.416	1392
29.424	1346
29.432	1310.99999999999
29.44	1288
29.448	1276
29.456	1274
29.464	1280
29.472	1294
29.48	1313
29.488	1336
29.496	1360.00000000001
29.504	1383
29.512	1403
29.52	1420
29.528	1433
29.536	1442
29.544	1446
29.552	1446
29.56	1443
29.568	1438
29.576	1430
29.584	1420
29.592	1406.99999999999
29.6	1391
29.608	1374
29.616	1358
29.624	1341.99999999999
29.632	1326
29.64	1311
29.648	1296
29.656	1279.99999999999
29.664	1265
29.672	1252
29.68	1238
29.688	1224.99999999999
29.696	1214
29.704	1203
29.712	1193
29.72	1183
29.728	1173
29.736	1163
29.744	1153
29.752	1143
29.76	1134
29.768	1125
29.776	1117
29.784	1109
29.792	1100
29.8	1090
29.808	1080
29.816	1069
29.824	1060
29.832	1056
29.84	1059
29.848	1075
29.856	1112
29.864	1181
29.872	1280
29.88	1405
29.888	1564
29.896	1748
29.904	1948
29.912	2154
29.92	2354
29.928	2533
29.936	2691
29.944	2824
29.952	2922
29.96	2983
29.968	3014
29.976	3020
29.984	3001
29.992	2962
30	2908
30.008	2845
30.016	2772.99999999997
30.024	2691
30.032	2604
30.04	2512
30.048	2413.99999999996
30.056	2311
30.064	2204
30.072	2094
30.08	1982.99999999995
30.088	1874
30.096	1768
30.104	1668
30.112	1576.99999999996
30.12	1499
30.128	1432
30.136	1375
30.144	1331.99999999998
30.152	1302
30.16	1284
30.168	1277
30.176	1280
30.184	1290
30.192	1307
30.2	1328
30.208	1350.00000000001
30.216	1372
30.224	1393
30.232	1412
30.24	1426.00000000001
30.248	1436
30.256	1443
30.264	1447
30.272	1446
30.28	1440
30.288	1432
30.296	1422
30.304	1410.99999999999
30.312	1399
30.32	1385
30.328	1370
30.336	1352.99999999999
30.344	1337
30.352	1321
30.36	1304
30.368	1286.99999999999
30.376	1273
30.384	1259
30.392	1246
30.4	1233.99999999999
30.408	1222
30.416	1211
30.424	1202
30.432	1192
30.44	1181
30.448	1171
30.456	1162
30.464	1152
30.472	1142
30.48	1133
30.488	1125
30.496	1117
30.504	1108
30.512	1098
30.52	1089
30.528	1080
30.536	1070
30.544	1060
30.552	1054
30.56	1059
30.568	1084
30.576	1129
30.584	1198
30.592	1300.00000000005
30.6	1438
30.608	1604
30.616	1790
30.624	1989.00000000009
30.632	2187
30.64	2377
30.648	2552
30.656	2701.00000000006
30.664	2816
30.672	2900
30.68	2959
30.688	2987
30.696	2984
30.704	2960
30.712	2922
30.72	2868
30.728	2801
30.736	2727
30.744	2646
30.752	2557
30.76	2462
30.768	2360
30.776	2255
30.784	2147
30.792	2035
30.8	1924
30.808	1815
30.816	1711
30.824	1617
30.832	1531
30.84	1453
30.848	1389
30.856	1339
30.864	1300
30.872	1273
30.88	1259
30.888	1256
30.896	1261
30.904	1273
30.912	1291
30.92	1311
30.928	1332
30.936	1354
30.944	1375
30.952	1392
30.96	1405
30.968	1416
30.976	1422
30.984	1424
30.992	1422
31	1417
31.008	1409
31.016	1397.99999999999
31.024	1386
31.032	1373
31.04	1358
31.048	1341.99999999999
31.056	1326
31.064	1309
31.072	1294
31.08	1277.99999999999
31.088	1262
31.096	1247
31.104	1233
31.112	1219.99999999999
31.12	1208
31.128	1198
31.136	1188
31.144	1177
31.152	1167
31.16	1159
31.168	1151
31.176	1142
31.184	1132
31.192	1122
31.2	1113
31.208	1105
31.216	1098
31.224	1091
31.232	1083
31.24	1073
31.248	1063
31.256	1053
31.264	1044
31.272	1042
31.28	1050
31.288	1074
31.296	1124
31.304	1208.00000000004
31.312	1321
31.32	1461
31.328	1631
31.336	1822.00000000009
31.344	2023
31.352	2224
31.36	2415
31.368	2583.00000000007
31.376	2726
31.384	2843
31.392	2926
31.4	2972.00000000001
31.408	2990
31.416	2986
31.424	2959
31.432	2912.99999999998
31.44	2854
31.448	2786
31.456	2708
31.464	2620.99999999996
31.472	2530
31.48	2433
31.488	2331
31.496	2224.99999999995
31.504	2116
31.512	2005
31.52	1895
31.528	1788.99999999995
31.536	1688
31.544	1594
31.552	1510
31.56	1438.99999999997
31.568	1380
31.576	1331
31.584	1297
31.592	1277.99999999999
31.6	1269
31.608	1268
31.616	1275
31.624	1291.00000000001
31.632	1312
31.64	1334
31.648	1357
31.656	1379.00000000001
31.664	1398
31.672	1413
31.68	1425
31.688	1433
31.696	1437
31.704	1438
31.712	1435
31.72	1428
31.728	1418
31.736	1407
31.744	1394
31.752	1379
31.76	1364
31.768	1347
31.776	1331
31.784	1315
31.792	1298
31.8	1282
31.808	1268
31.816	1254
31.824	1240
31.832	1227
31.84	1216
31.848	1205
31.856	1195
31.864	1186
31.872	1176
31.88	1166
31.888	1157
31.896	1149
31.904	1140
31.912	1130
31.92	1121
31.928	1113
31.936	1105
31.944	1096
31.952	1086
31.96	1076
31.968	1066
31.976	1058
31.984	1052
31.992	1052
32	1066
32.008	1105
32.016	1169
32.024	1258
32.032	1381.00000000012
32.04	1539
32.048	1721
32.056	1916
32.064	2117
32.072	2312
32.08	2494
32.088	2658
32.096	2793.0000000001
32.104	2892
32.112	2959
32.12	3001
32.128	3012
32.136	2994
32.144	2957
32.152	2907
32.16	2843.99999999994
32.168	2769
32.176	2688
32.184	2601
32.192	2508
32.2	2408
32.208	2303
32.216	2196
32.224	2084.9999999999
32.232	1973
32.24	1863
32.248	1757
32.256	1657
32.264	1567
32.272	1487
32.28	1417
32.288	1359.99999999996
32.296	1318
32.304	1289
32.312	1272
32.32	1266
32.328	1270
32.336	1282
32.344	1300
32.352	1322.00000000002
32.36	1344
32.368	1366
32.376	1387
32.384	1406
32.392	1420
32.4	1430
32.408	1437
32.416	1440
32.424	1438
32.432	1434
32.44	1428
32.448	1418
32.456	1404
32.464	1389
32.472	1374
32.48	1356.99999999998
32.488	1340
32.496	1322
32.504	1305
32.512	1289
32.52	1274
32.528	1260
32.536	1247
32.544	1234.99999999999
32.552	1223
32.56	1212
32.568	1202
32.576	1192
32.584	1181
32.592	1170
32.6	1159
32.608	1148.99999999999
32.616	1139
32.624	1129
32.632	1119
32.64	1110
32.648	1101
32.656	1093
32.664	1086
32.672	1077.99999999999
32.68	1067
32.688	1056
32.696	1046
32.704	1040
32.712	1048
32.72	1072
32.728	1115
32.736	1189.00000000008
32.744	1301
32.752	1443
32.76	1608
32.768	1796
32.776	1997
32.784	2202
32.792	2398
32.8	2574
32.808	2720
32.816	2838
32.824	2928
32.832	2983
32.84	3004
32.848	2999
32.856	2975
32.864	2932
32.872	2873
32.88	2804
32.888	2728
32.896	2644
32.904	2552
32.912	2455
32.92	2355
32.928	2250
32.936	2140
32.944	2028
32.952	1916
32.96	1806
32.968	1702
32.976	1605
32.984	1518
32.992	1442
33	1380
33.008	1331
33.016	1294
33.024	1269
33.032	1257
33.04	1256
33.048	1262
33.056	1274
33.064	1291
33.072	1313
33.08	1337
33.088	1360
33.096	1379.00000000002
33.104	1396
33.112	1409
33.12	1419
33.128	1424
33.136	1424
33.144	1421
33.152	1415
33.16	1406.99999999999
33.168	1396
33.176	1382
33.184	1367
33.192	1351
33.2	1335
33.208	1318
33.216	1300
33.224	1283.99999999999
33.232	1269
33.24	1255
33.248	1241
33.256	1227
33.264	1213
33.272	1200
33.28	1188
33.288	1177.99999999999
33.296	1168
33.304	1158
33.312	1149
33.32	1140
33.328	1130
33.336	1120
33.344	1110
33.352	1099.99999999999
33.36	1090
33.368	1081
33.376	1073
33.384	1064
33.392	1054
33.4	1044
33.408	1033
33.416	1027
33.424	1028
33.432	1039
33.44	1072
33.448	1137
33.456	1231
33.464	1352
33.472	1507
33.48	1692.00000000017
33.488	1893
33.496	2099
33.504	2301
33.512	2484
33.52	2646
33.528	2785
33.536	2891
33.544	2959.00000000004
33.552	2996
33.56	3008
33.568	2993
33.576	2956
33.584	2903
33.592	2840
33.6	2765
33.608	2681.99999999992
33.616	2594
33.624	2501
33.632	2402
33.64	2297
33.648	2189
33.656	2079
33.664	1968
33.672	1856.9999999999
33.68	1750
33.688	1648
33.696	1554
33.704	1472
33.712	1401
33.72	1342
33.728	1297
33.736	1266.99999999998
33.744	1248
33.752	1239
33.76	1241
33.768	1251
33.776	1268
33.784	1288
33.792	1310
33.8	1332
33.808	1353
33.816	1373
33.824	1389
33.832	1399
33.84	1405
33.848	1409
33.856	1409
33.864	1404
33.872	1396
33.88	1387
33.888	1376
33.896	1362
33.904	1347
33.912	1332
33.92	1315
33.928	1298
33.936	1281
33.944	1265
33.952	1250
33.96	1235
33.968	1220
33.976	1205
33.984	1193
33.992	1182
34	1171
34.008	1161
34.016	1151
34.024	1141
34.032	1130.99999999999
34.04	1122
34.048	1113
34.056	1104
34.064	1094
34.072	1085
34.08	1077
34.088	1068
34.096	1057.99999999999
34.104	1048
34.112	1037
34.12	1027
34.128	1017
34.136	1009
34.144	1009
34.152	1028
34.16	1066.00000000004
34.168	1125
34.176	1218
34.184	1349
34.192	1510
34.2	1691
34.208	1892
34.216	2097
34.224	2298.00000000017
34.232	2487
34.24	2653
34.248	2784
34.256	2883
34.264	2954
34.272	2990
34.28	2994
34.288	2973.99999999998
34.296	2938
34.304	2886
34.312	2820
34.32	2746
34.328	2666
34.336	2579
34.344	2485
34.352	2385.99999999991
34.36	2284
34.368	2177
34.376	2066
34.384	1954
34.392	1844
34.4	1737
34.408	1637
34.416	1544.99999999992
34.424	1463
34.432	1393
34.44	1336
34.448	1291
34.456	1258
34.464	1237
34.472	1230
34.48	1233
34.488	1244
34.496	1260
34.504	1280
34.512	1303
34.52	1327
34.528	1348
34.536	1365
34.544	1380.00000000001
34.552	1392
34.56	1399
34.568	1401
34.576	1400
34.584	1396
34.592	1389
34.6	1379
34.608	1366.99999999999
34.616	1353
34.624	1338
34.632	1322
34.64	1305
34.648	1289
34.656	1274
34.664	1258
34.672	1241.99999999999
34.68	1226
34.688	1210
34.696	1196
34.704	1184
34.712	1173
34.72	1163
34.728	1153
34.736	1142.99999999999
34.744	1134
34.752	1125
34.76	1117
34.768	1109
34.776	1100
34.784	1090
34.792	1080
34.8	1070.99999999999
34.808	1063
34.816	1054
34.824	1043
34.832	1032
34.84	1021
34.848	1011
34.856	1006
34.864	1007
34.872	1020
34.88	1054
34.888	1121
34.896	1218
34.904	1341
34.912	1497
34.92	1681
34.928	1883
34.936	2090
34.944	2291
34.952	2473
34.96	2633
34.968	2768
34.976	2868
34.984	2932
34.992	2967
35	2978
35.008	2962
35.016	2924
35.024	2871
35.032	2807.99999999994
35.04	2734
35.048	2652
35.056	2565
35.064	2475
35.072	2379
35.08	2276
35.088	2170
35.096	2062.9999999999
35.104	1954
35.112	1846
35.12	1743
35.128	1646
35.136	1555
35.144	1475
35.152	1406
35.16	1347.99999999996
35.168	1304
35.176	1273
35.184	1254
35.192	1244
35.2	1244
35.208	1253
35.216	1269
35.224	1290.00000000002
35.232	1312
35.24	1333
35.248	1354
35.256	1372
35.264	1386
35.272	1396
35.28	1404
35.288	1408
35.296	1408
35.304	1405
35.312	1399
35.32	1390
35.328	1377
35.336	1363
35.344	1349
35.352	1334.99999999999
35.36	1320
35.368	1304
35.376	1288
35.384	1273
35.392	1259
35.4	1245
35.408	1232
35.416	1219.99999999999
35.424	1209
35.432	1198
35.44	1187
35.448	1178
35.456	1168
35.464	1157
35.472	1148
35.48	1138.99999999999
35.488	1130
35.496	1121
35.504	1113
35.512	1105
35.52	1096
35.528	1086
35.536	1078
35.544	1069.99999999999
35.552	1061
35.56	1051
35.568	1040
35.576	1031
35.584	1030
35.592	1045
35.6	1077
35.608	1131.00000000006
35.616	1220
35.624	1346
35.632	1502
35.64	1681
35.648	1880
35.656	2086
35.664	2291
35.672	2484.00000000016
35.68	2652
35.688	2786
35.696	2889
35.704	2963
35.712	3002
35.72	3008
35.728	2990
35.736	2954.99999999996
35.744	2904
35.752	2838
35.76	2763
35.768	2683
35.776	2596
35.784	2502
35.792	2405
35.8	2305.99999999991
35.808	2202
35.816	2094
35.824	1985
35.832	1879
35.84	1774
35.848	1674
35.856	1583
35.864	1501
35.872	1430
35.88	1372
35.888	1326
35.896	1291
35.904	1268
35.912	1256
35.92	1255
35.928	1263
35.936	1277
35.944	1296
35.952	1318
35.96	1340
35.968	1361
35.976	1379
35.984	1393
35.992	1405
36	1413
36.008	1416
36.016	1415
36.024	1413
36.032	1406.99999999999
36.04	1397
36.048	1387
36.056	1376
36.064	1362
36.072	1347
36.08	1332
36.088	1315
36.096	1297.99999999999
36.104	1282
36.112	1267
36.12	1252
36.128	1237
36.136	1224
36.144	1211
36.152	1199
36.16	1187.99999999999
36.168	1177
36.176	1168
36.184	1159
36.192	1150
36.2	1140
36.208	1130
36.216	1120
36.224	1109.99999999999
36.232	1101
36.24	1093
36.248	1085
36.256	1077
36.264	1069
36.272	1060
36.28	1049
36.288	1038.99999999999
36.296	1031
36.304	1025
36.312	1026
36.32	1043
36.328	1087
36.336	1156
36.344	1252
36.352	1384.00000000013
36.36	1550
36.368	1738
36.376	1938
36.384	2143
36.392	2338
36.4	2518
36.408	2677
36.416	2804.00000000009
36.424	2893
36.432	2952
36.44	2984
36.448	2987
36.456	2965
36.464	2924
36.472	2870
36.48	2803.99999999994
36.488	2727
36.496	2645
36.504	2559
36.512	2467
36.52	2368
36.528	2264
36.536	2159
36.544	2050.9999999999
36.552	1940
36.56	1830
36.568	1725
36.576	1627
36.584	1538
36.592	1459
36.6	1392
36.608	1335.99999999996
36.616	1293
36.624	1264
36.632	1246
36.64	1238
36.648	1239
36.656	1248
36.664	1262
36.672	1282.00000000002
36.68	1305
36.688	1329
36.696	1352
36.704	1372
36.712	1388
36.72	1401
36.728	1412
36.736	1418
36.744	1419
36.752	1416
36.76	1410
36.768	1402
36.776	1390
36.784	1377
36.792	1364
36.8	1346.99999999998
36.808	1330
36.816	1313
36.824	1296
36.832	1278
36.84	1261
36.848	1246
36.856	1232
36.864	1217.99999999999
36.872	1205
36.88	1194
36.888	1183
36.896	1173
36.904	1162
36.912	1151
36.92	1142
36.928	1132
36.936	1121
36.944	1111
36.952	1102
36.96	1093
36.968	1085
36.976	1077
36.984	1069
36.992	1061
37	1052
37.008	1042
37.016	1032
37.024	1021
37.032	1016
37.04	1019
37.048	1034
37.056	1105
37.064	1190
37.072	1303
37.08	1619
37.088	1812
37.096	2014.00000000024
37.104	2405
37.112	2572
37.12	2715
37.128	2906
37.136	2951
37.144	2969
37.152	2952
37.16	2910.99999999996
37.168	2856
37.176	2790
37.184	2716
37.192	2634
37.2	2546
37.208	2454
37.216	2357
37.224	2253.99999999991
37.232	2146
37.24	2037
37.248	1928
37.256	1821
37.264	1718
37.272	1620
37.28	1531
37.288	1453.99999999994
37.296	1387
37.304	1332
37.312	1290
37.32	1262
37.328	1245
37.336	1238
37.344	1241
37.352	1253.00000000001
37.36	1271
37.368	1293
37.376	1317
37.384	1341
37.392	1364
37.4	1384
37.408	1401
37.416	1415.00000000001
37.424	1424
37.432	1427
37.44	1427
37.448	1423
37.456	1417
37.464	1409
37.472	1399
37.48	1386.99999999999
37.488	1373
37.496	1358
37.504	1341
37.512	1324
37.52	1306
37.528	1290
37.536	1276
37.544	1261.99999999999
37.552	1248
37.56	1236
37.568	1224
37.576	1211
37.584	1201
37.592	1192
37.6	1182
37.608	1171.99999999999
37.616	1162
37.624	1153
37.632	1144
37.64	1134
37.648	1125
37.656	1117
37.664	1109
37.672	1100.99999999999
37.68	1093
37.688	1086
37.696	1078
37.704	1068
37.712	1057
37.72	1047
37.728	1040
37.736	1044.00000000001
37.744	1062
37.752	1097
37.76	1159
37.768	1257
37.776	1388
37.784	1545
37.792	1729
37.8	1929.00000000018
37.808	2136
37.816	2338
37.824	2524
37.832	2682
37.84	2813
37.848	2917
37.856	2984
37.864	3014.00000000001
37.872	3018
37.88	3001
37.888	2964
37.896	2909
37.904	2842
37.912	2767
37.92	2685
37.928	2596
37.936	2501
37.944	2402
37.952	2297
37.96	2189
37.968	2080
37.976	1970
37.984	1862
37.992	1758
38	1658
38.008	1566
38.016	1485
38.024	1417
38.032	1359.99999999995
38.04	1313
38.048	1281
38.056	1264
38.064	1258
38.072	1261
38.08	1273
38.088	1291
38.096	1312.00000000002
38.104	1335
38.112	1360
38.12	1383
38.128	1404
38.136	1420
38.144	1432
38.152	1440
38.16	1445
38.168	1448
38.176	1446
38.184	1440
38.192	1431
38.2	1421
38.208	1409
38.216	1395
38.224	1379.99999999999
38.232	1364
38.24	1347
38.248	1330
38.256	1312
38.264	1294
38.272	1278
38.28	1264
38.288	1250.99999999999
38.296	1239
38.304	1227
38.312	1216
38.32	1206
38.328	1196
38.336	1186
38.344	1177
38.352	1168.99999999999
38.36	1161
38.368	1152
38.376	1142
38.384	1133
38.392	1125
38.4	1117
38.408	1109
38.416	1100.99999999999
38.424	1092
38.432	1082
38.44	1072
38.448	1063
38.456	1057
38.464	1058
38.472	1077
38.48	1115.00000000004
38.488	1176
38.496	1270
38.504	1402
38.512	1564
38.52	1747
38.528	1949
38.536	2155
38.544	2357.00000000017
38.552	2546
38.56	2709
38.568	2838
38.576	2937
38.584	3009
38.592	3046
38.6	3049
38.608	3028.99999999998
38.616	2993
38.624	2940
38.632	2872
38.64	2795
38.648	2713
38.656	2624
38.664	2528
38.672	2426.99999999991
38.68	2323
38.688	2215
38.696	2104
38.704	1993
38.712	1884
38.72	1777
38.728	1677
38.736	1584.99999999992
38.744	1503
38.752	1433
38.76	1377
38.768	1333
38.776	1301
38.784	1282
38.792	1274
38.8	1276
38.808	1285
38.816	1301
38.824	1322
38.832	1345
38.84	1369
38.848	1392
38.856	1412
38.864	1430.00000000001
38.872	1445
38.88	1455
38.888	1460
38.896	1461
38.904	1459
38.912	1454
38.92	1445
38.928	1434
38.936	1422
38.944	1407
38.952	1391
38.96	1376
38.968	1359
38.976	1341
38.984	1323
38.992	1306
39	1290
39.008	1275
39.016	1261
39.024	1248
39.032	1235.99999999999
39.04	1225
39.048	1215
39.056	1206
39.064	1197
39.072	1188
39.08	1178
39.088	1169
39.096	1160.99999999999
39.104	1152
39.112	1142
39.12	1134
39.128	1127
39.136	1120
39.144	1111
39.152	1102
39.16	1091.99999999999
39.168	1082
39.176	1073
39.184	1066
39.192	1065
39.2	1080
39.208	1120
39.216	1184
39.224	1275.00000000009
39.232	1403
39.24	1564
39.248	1749
39.256	1950
39.264	2158
39.272	2358
39.28	2544
39.288	2711.00000000013
39.296	2847
39.304	2945
39.312	3011
39.32	3050
39.328	3059
39.336	3040
39.344	3000
39.352	2946.99999999995
39.36	2882
39.368	2806
39.376	2722
39.384	2634
39.392	2540
39.4	2438
39.408	2333
39.416	2225.9999999999
39.424	2115
39.432	2004
39.44	1894
39.448	1787
39.456	1686
39.464	1594
39.472	1512
39.48	1439.99999999994
39.488	1381
39.496	1338
39.504	1306
39.512	1284
39.52	1275
39.528	1278
39.536	1288
39.544	1305.00000000002
39.552	1329
39.56	1355
39.568	1380
39.576	1402
39.584	1422
39.592	1439
39.6	1452
39.608	1460
39.616	1464
39.624	1465
39.632	1463
39.64	1458
39.648	1450
39.656	1439
39.664	1427
39.672	1412.99999999999
39.68	1396
39.688	1377
39.696	1359
39.704	1341
39.712	1323
39.72	1305
39.728	1288
39.736	1272.99999999999
39.744	1260
39.752	1246
39.76	1233
39.768	1223
39.776	1213
39.784	1202
39.792	1191
39.8	1181.99999999999
39.808	1172
39.816	1162
39.824	1152
39.832	1142
39.84	1134
39.848	1126
39.856	1118
39.864	1111.99999999999
39.872	1105
39.88	1097
39.888	1088
39.896	1077
39.904	1067
39.912	1063
39.92	1067
39.928	1083.00000000002
39.936	1121
39.944	1192
39.952	1292
39.96	1420
39.968	1583
39.976	1773
39.984	1977
39.992	2185
40	2387
40.008	2568
40.016	2726
40.024	2860
40.032	2960.00000000007
40.04	3021
40.048	3051
40.056	3057
40.064	3037
40.072	2995
40.08	2938
40.088	2870
40.096	2791.99999999993
40.104	2706
40.112	2614
40.12	2517
40.128	2416
40.136	2310
40.144	2201
40.152	2091
40.16	1979.9999999999
40.168	1870
40.176	1764
40.184	1664
40.192	1572
40.2	1491
40.208	1422
40.216	1364
40.224	1319.99999999997
40.232	1290
40.24	1272
40.248	1264
40.256	1266
40.264	1277
40.272	1295
40.28	1317
40.288	1341.00000000002
40.296	1364
40.304	1387
40.312	1409
40.32	1426
40.328	1439
40.336	1449
40.344	1455
40.352	1457
40.36	1455
40.368	1449
40.376	1440
40.384	1428
40.392	1414
40.4	1399
40.408	1384
40.416	1366.99999999998
40.424	1350
40.432	1332
40.44	1315
40.448	1300
40.456	1283
40.464	1267
40.472	1253
40.48	1239.99999999999
40.488	1227
40.496	1216
40.504	1205
40.512	1195
40.52	1185
40.528	1176
40.536	1167
40.544	1157.99999999999
40.552	1149
40.56	1141
40.568	1133
40.576	1125
40.584	1117
40.592	1109
40.6	1101
40.608	1092.99999999999
40.616	1084
40.624	1074
40.632	1065
40.64	1060
40.648	1067
40.656	1090
40.664	1132
40.672	1204.00000000008
40.68	1315
40.688	1459
40.696	1627
40.704	1820
40.712	2025
40.72	2233
40.728	2433
40.736	2614.00000000015
40.744	2764
40.752	2884
40.76	2975
40.768	3032
40.776	3054
40.784	3049
40.792	3024
40.8	2978.99999999995
40.808	2919
40.816	2847
40.824	2767
40.832	2681
40.84	2588
40.848	2489
40.856	2388
40.864	2281.9999999999
40.872	2172
40.88	2061
40.888	1951
40.896	1842
40.904	1738
40.912	1640
40.92	1550
40.928	1471.99999999994
40.936	1407
40.944	1354
40.952	1312
40.96	1283
40.968	1267
40.976	1261
40.984	1263
40.992	1274
41	1292
41.008	1315
41.016	1340
41.024	1365
41.032	1389.00000000002
41.04	1411
41.048	1431
41.056	1445
41.064	1453
41.072	1458
41.08	1459
41.088	1457
41.096	1451.99999999999
41.104	1443
41.112	1433
41.12	1421
41.128	1406
41.136	1389
41.144	1374
41.152	1358
41.16	1339.99999999998
41.168	1322
41.176	1305
41.184	1290
41.192	1275
41.2	1261
41.208	1248
41.216	1236
41.224	1224.99999999999
41.232	1214
41.24	1202
41.248	1190
41.256	1178
41.264	1168
41.272	1159
41.28	1150
41.288	1140.99999999999
41.296	1133
41.304	1125
41.312	1117
41.32	1108
41.328	1100
41.336	1093
41.344	1085
41.352	1076.99999999999
41.36	1070
41.368	1067
41.376	1076
41.384	1108
41.392	1163
41.4	1243
41.408	1359
41.416	1513.00000000015
41.424	1694
41.432	1891
41.44	2101
41.448	2308
41.456	2504
41.464	2683
41.472	2833
41.48	2945.00000000008
41.488	3025
41.496	3077
41.504	3096
41.512	3085
41.52	3054
41.528	3005
41.536	2941
41.544	2864.99999999993
41.552	2782
41.56	2694
41.568	2600
41.576	2500
41.584	2397
41.592	2292
41.6	2181
41.608	2067.9999999999
41.616	1955
41.624	1847
41.632	1744
41.64	1648
41.648	1561
41.656	1484
41.664	1418
41.672	1365.99999999996
41.68	1327
41.688	1300
41.696	1285
41.704	1283
41.712	1290
41.72	1302
41.728	1320
41.736	1342.00000000002
41.744	1365
41.752	1389
41.76	1412
41.768	1431
41.776	1447
41.784	1459
41.792	1467
41.8	1470
41.808	1468
41.816	1464
41.824	1456
41.832	1445
41.84	1434
41.848	1420
41.856	1405
41.864	1389.99999999999
41.872	1372
41.88	1353
41.888	1335
41.896	1318
41.904	1301
41.912	1286
41.92	1272
41.928	1257.99999999999
41.936	1245
41.944	1233
41.952	1221
41.96	1210
41.968	1199
41.976	1189
41.984	1179
41.992	1169
42	1159
42.008	1149
42.016	1139
42.024	1130
42.032	1120.99999999999
42.04	1114
42.048	1107
42.056	1099
42.064	1090
42.072	1081
42.08	1073
42.088	1069
42.096	1071
42.104	1084
42.112	1117
42.12	1183
42.128	1279
42.136	1403
42.144	1561
42.152	1746
42.16	1947.00000000018
42.168	2154
42.176	2356
42.184	2539
42.192	2701
42.2	2839
42.208	2942
42.216	3006
42.224	3040.00000000001
42.232	3050
42.24	3033
42.248	2993
42.256	2938
42.264	2872
42.272	2796
42.28	2711
42.288	2620.99999999992
42.296	2527
42.304	2428
42.312	2323
42.32	2215
42.328	2106
42.336	1995
42.344	1885
42.352	1777.99999999991
42.36	1676
42.368	1581
42.376	1498
42.384	1426
42.392	1365
42.4	1318
42.408	1285
42.416	1265.99999999999
42.424	1256
42.432	1256
42.44	1266
42.448	1283
42.456	1305
42.464	1330
42.472	1355
42.48	1380.00000000002
42.488	1402
42.496	1420
42.504	1434
42.512	1445
42.52	1453
42.528	1456
42.536	1453
42.544	1446.99999999999
42.552	1439
42.56	1428
42.568	1414
42.576	1399
42.584	1384
42.592	1367
42.6	1350
42.608	1331.99999999998
42.616	1314
42.624	1297
42.632	1280
42.64	1262
42.648	1246
42.656	1231
42.664	1217
42.672	1204.99999999999
42.68	1195
42.688	1186
42.696	1176
42.704	1166
42.712	1158
42.72	1151
42.728	1144
42.736	1135.99999999999
42.744	1128
42.752	1121
42.76	1115
42.768	1107
42.776	1098
42.784	1089
42.792	1080
42.8	1068.99999999999
42.808	1060
42.816	1054
42.824	1058
42.832	1075
42.84	1111
42.848	1175
42.856	1276
42.864	1408.00000000013
42.872	1565
42.88	1748
42.888	1945
42.896	2150
42.904	2349
42.912	2531
42.92	2685
42.928	2811.0000000001
42.936	2910
42.944	2974
42.952	3002
42.96	3003
42.968	2984
42.976	2943
42.984	2885
42.992	2815.99999999994
43	2739
43.008	2655
43.016	2565
43.024	2470
43.032	2370.99999999991
43.04	2268
43.048	2160
43.056	2050
43.064	1939
43.072	1830
43.08	1726
43.088	1628
43.096	1536.99999999992
43.104	1458
43.112	1392
43.12	1337
43.128	1293
43.136	1262
43.144	1243
43.152	1236
43.16	1238
43.168	1249
43.176	1268
43.184	1290
43.192	1314
43.2	1339
43.208	1363
43.216	1385
43.224	1404.00000000001
43.232	1418
43.24	1427
43.248	1433
43.256	1436
43.264	1434
43.272	1429
43.28	1422
43.288	1411.99999999999
43.296	1401
43.304	1388
43.312	1372
43.32	1356
43.328	1339
43.336	1321
43.344	1303
43.352	1285.99999999999
43.36	1270
43.368	1255
43.376	1241
43.384	1229
43.392	1218
43.4	1207
43.408	1197
43.416	1187.99999999999
43.424	1179
43.432	1169
43.44	1160
43.448	1151
43.456	1142
43.464	1132
43.472	1122
43.48	1113.99999999999
43.488	1107
43.496	1100
43.504	1092
43.512	1084
43.52	1075
43.528	1067
43.536	1060
43.544	1055
43.552	1060
43.56	1084
43.568	1129
43.576	1199
43.584	1304
43.592	1446
43.6	1616
43.608	1804.00000000017
43.616	2005
43.624	2206
43.632	2399
43.64	2577
43.648	2728
43.656	2845
43.664	2932
43.672	2990.00000000003
43.68	3016
43.688	3012
43.696	2986
43.704	2944
43.712	2885
43.72	2813
43.728	2735
43.736	2651.99999999992
43.744	2561
43.752	2464
43.76	2362
43.768	2257
43.776	2149
43.784	2039
43.792	1929
43.8	1820.99999999991
43.808	1717
43.816	1621
43.824	1533
43.832	1454
43.84	1387
43.848	1335
43.856	1296
43.864	1267.99999999998
43.872	1252
43.88	1249
43.888	1256
43.896	1268
43.904	1287
43.912	1310
43.92	1335
43.928	1361.00000000002
43.936	1384
43.944	1403
43.952	1420
43.96	1433
43.968	1442
43.976	1446
43.984	1446
43.992	1443
44	1438
44.008	1430
44.016	1420
44.024	1408
44.032	1393.99999999999
44.04	1378
44.048	1361
44.056	1344
44.064	1326
44.072	1309
44.08	1293
44.088	1278
44.096	1263.99999999999
44.104	1250
44.112	1236
44.12	1224
44.128	1213
44.136	1202
44.144	1191
44.152	1183
44.16	1174.99999999999
44.168	1165
44.176	1156
44.184	1147
44.192	1138
44.2	1129
44.208	1121
44.216	1113
44.224	1104.99999999999
44.232	1097
44.24	1089
44.248	1080
44.256	1070
44.264	1065
44.272	1066
44.28	1077
44.288	1109.00000000004
44.296	1172
44.304	1263
44.312	1381
44.32	1534
44.328	1716
44.336	1915
44.344	2120
44.352	2321.00000000017
44.36	2506
44.368	2670
44.376	2810
44.384	2918
44.392	2988
44.4	3026
44.408	3039
44.416	3025.99999999998
44.424	2989
44.432	2937
44.44	2874
44.448	2799
44.456	2715
44.464	2625
44.472	2531
44.48	2431.99999999991
44.488	2327
44.496	2219
44.504	2109
44.512	1997
44.52	1887
44.528	1780
44.536	1677
44.544	1582.99999999992
44.552	1500
44.56	1428
44.568	1368
44.576	1321
44.584	1289
44.592	1268
44.6	1257
44.608	1258
44.616	1267
44.624	1284
44.632	1305
44.64	1330
44.648	1355
44.656	1380
44.664	1403
44.672	1424.00000000002
44.68	1440
44.688	1452
44.696	1460
44.704	1463
44.712	1461
44.72	1455
44.728	1447
44.736	1436.99999999999
44.744	1424
44.752	1408
44.76	1392
44.768	1376
44.776	1359
44.784	1342
44.792	1325
44.8	1307.99999999998
44.808	1291
44.816	1277
44.824	1263
44.832	1249
44.84	1237
44.848	1226
44.856	1214
44.864	1201.99999999999
44.872	1191
44.88	1182
44.888	1173
44.896	1164
44.904	1154
44.912	1145
44.92	1138
44.928	1130.99999999999
44.936	1123
44.944	1115
44.952	1108
44.96	1100
44.968	1091
44.976	1082
44.984	1073
44.992	1069
45	1079
45.008	1105
45.016	1151
45.024	1228
45.032	1343.00000000011
45.04	1489
45.048	1658
45.056	1849
45.064	2051
45.072	2254
45.08	2448
45.088	2623
45.096	2768.00000000011
45.104	2884
45.112	2973
45.12	3028
45.128	3047
45.136	3041
45.144	3016
45.152	2970
45.16	2907.99999999994
45.168	2836
45.176	2757
45.184	2670
45.192	2575
45.2	2477
45.208	2375
45.216	2269
45.224	2158.9999999999
45.232	2046
45.24	1934
45.248	1824
45.256	1719
45.264	1622
45.272	1533
45.28	1456
45.288	1390.99999999995
45.296	1339
45.304	1300
45.312	1274
45.32	1261
45.328	1260
45.336	1267
45.344	1281
45.352	1301.00000000002
45.36	1326
45.368	1351
45.376	1376
45.384	1398
45.392	1418
45.4	1436
45.408	1450
45.416	1459.00000000001
45.424	1464
45.432	1464
45.44	1460
45.448	1452
45.456	1441
45.464	1429
45.472	1415
45.48	1398.99999999999
45.488	1382
45.496	1364
45.504	1346
45.512	1328
45.52	1310
45.528	1293
45.536	1277
45.544	1261.99999999999
45.552	1249
45.56	1238
45.568	1226
45.576	1214
45.584	1203
45.592	1194
45.6	1184
45.608	1173.99999999999
45.616	1165
45.624	1156
45.632	1146
45.64	1137
45.648	1130
45.656	1123
45.664	1115
45.672	1105.99999999999
45.68	1097
45.688	1089
45.696	1080
45.704	1072
45.712	1068
45.72	1072
45.728	1093
45.736	1143.00000000005
45.744	1220
45.752	1324
45.76	1464
45.768	1635
45.776	1828
45.784	2032
45.792	2238
45.8	2431.00000000016
45.808	2607
45.816	2761
45.824	2883
45.832	2968
45.84	3023
45.848	3052
45.856	3051
45.864	3023.99999999997
45.872	2977
45.88	2920
45.888	2850
45.896	2769
45.904	2682
45.912	2590
45.92	2492
45.928	2387.99999999991
45.936	2281
45.944	2172
45.952	2060
45.96	1949
45.968	1840
45.976	1734
45.984	1636
45.992	1547.99999999993
46	1470
46.008	1404
46.016	1351
46.024	1312
46.032	1284.99999999998
46.04	1270
46.048	1266
46.056	1272.00000000001
46.064	1285
46.072	1303
46.08	1325
46.088	1349
46.096	1373.00000000002
46.104	1396
46.112	1416
46.12	1431
46.128	1441
46.136	1448
46.144	1451
46.152	1450
46.16	1446
46.168	1440
46.176	1431
46.184	1419
46.192	1405
46.2	1390
46.208	1373
46.216	1356
46.224	1337.99999999998
46.232	1322
46.24	1306
46.248	1290
46.256	1275
46.264	1262
46.272	1250
46.28	1238
46.288	1224.99999999999
46.296	1213
46.304	1202
46.312	1190
46.32	1179
46.328	1171
46.336	1163
46.344	1154
46.352	1143.99999999999
46.36	1135
46.368	1127
46.376	1118
46.384	1109
46.392	1101
46.4	1092
46.408	1082
46.416	1071.99999999999
46.424	1062
46.432	1057
46.44	1067
46.448	1093
46.456	1138
46.464	1213
46.472	1327
46.48	1472.00000000014
46.488	1641
46.496	1834
46.504	2038
46.512	2244
46.52	2442
46.528	2621
46.536	2769
46.544	2888.00000000009
46.552	2978
46.56	3033
46.568	3054
46.576	3048
46.584	3023
46.592	2978
46.6	2916
46.608	2842.99999999993
46.616	2764
46.624	2678
46.632	2585
46.64	2488
46.648	2386
46.656	2278
46.664	2165
46.672	2050.9999999999
46.68	1938
46.688	1827
46.696	1722
46.704	1622
46.712	1531
46.72	1453
46.728	1388
46.736	1333.99999999996
46.744	1291
46.752	1262
46.76	1246
46.768	1241
46.776	1246
46.784	1261
46.792	1283
46.8	1308.00000000002
46.808	1334
46.816	1359
46.824	1382
46.832	1402
46.84	1420
46.848	1433
46.856	1441
46.864	1445
46.872	1446
46.88	1442
46.888	1435
46.896	1426
46.904	1413
46.912	1399
46.92	1384
46.928	1367.99999999999
46.936	1351
46.944	1334
46.952	1316
46.96	1299
46.968	1283
46.976	1267
46.984	1253
46.992	1239.99999999999
47	1227
47.008	1216
47.016	1205
47.024	1195
47.032	1185.99999999999
47.04	1176
47.048	1165
47.056	1154.99999999999
47.064	1146
47.072	1138
47.08	1131
47.088	1124
47.096	1116.99999999999
47.104	1111
47.112	1104
47.12	1096
47.128	1087
47.136	1078
47.144	1071
47.152	1069
47.16	1076.00000000001
47.168	1100
47.176	1153
47.184	1234
47.192	1342
47.2	1486
47.208	1662
47.216	1858
47.224	2063.00000000018
47.232	2269
47.24	2461
47.248	2636
47.256	2787
47.264	2906
47.272	2987
47.28	3036
47.288	3059
47.296	3054
47.304	3022
47.312	2973
47.32	2913
47.328	2801
47.336	2717
47.344	2628
47.352	2484.99999999989
47.36	2382
47.368	2274
47.376	2165
47.384	1998
47.392	1887
47.4	1779
47.408	1584
47.416	1502.99999999993
47.424	1431
47.432	1325
47.44	1292
47.448	1271
47.456	1260
47.464	1267
47.472	1282
47.48	1302.00000000002
47.488	1327
47.496	1353
47.504	1377
47.512	1400
47.52	1419
47.528	1435
47.536	1448
47.544	1457.00000000001
47.552	1462
47.56	1461
47.568	1457
47.576	1450
47.584	1439
47.592	1426
47.6	1411
47.608	1395.99999999999
47.616	1379
47.624	1361
47.632	1343
47.64	1325
47.648	1307
47.656	1290
47.664	1274
47.672	1259.99999999999
47.68	1247
47.688	1234
47.696	1220
47.704	1207
47.712	1196
47.72	1185
47.728	1175
47.736	1164.99999999999
47.744	1155
47.752	1145
47.76	1136
47.768	1127
47.776	1119
47.784	1111
47.792	1103
47.8	1094.99999999999
47.808	1086
47.816	1076
47.824	1066
47.832	1058
47.84	1055
47.848	1069
47.856	1100
47.864	1151.00000000006
47.872	1236
47.88	1359
47.888	1514
47.896	1691
47.904	1889
47.912	2096
47.92	2302
47.928	2497.00000000016
47.936	2671
47.944	2813
47.952	2924
47.96	3006
47.968	3054
47.976	3067
47.984	3056
47.992	3025.99999999997
48	2977
48.008	2913
48.016	2839
48.024	2759
48.032	2671.99999999992
48.04	2578
48.048	2480
48.056	2377.99999999991
48.064	2271
48.072	2161
48.08	2049
48.088	1937
48.096	1825.9999999999
48.104	1720
48.112	1622
48.12	1532.99999999993
48.128	1456
48.136	1392
48.144	1341
48.152	1303
48.16	1277.99999999998
48.168	1265
48.176	1263
48.184	1269
48.192	1283
48.2	1302
48.208	1324
48.216	1347
48.224	1370.00000000002
48.232	1391
48.24	1410
48.248	1425
48.256	1437
48.264	1445
48.272	1449
48.28	1449
48.288	1445
48.296	1437
48.304	1426
48.312	1414
48.32	1400
48.328	1384
48.336	1367
48.344	1350
48.352	1331.99999999998
48.36	1314
48.368	1297
48.376	1281
48.384	1266
48.392	1251
48.4	1237
48.408	1225
48.416	1213.99999999999
48.424	1203
48.432	1193
48.44	1182
48.448	1171
48.456	1161
48.464	1151
48.472	1142
48.48	1132.99999999999
48.488	1125
48.496	1117
48.504	1109
48.512	1100
48.52	1089
48.528	1079
48.536	1069
48.544	1058.99999999999
48.552	1054
48.56	1054
48.568	1064
48.576	1093
48.584	1152
48.592	1239
48.6	1355
48.608	1506.00000000015
48.616	1685
48.624	1883
48.632	2089
48.64	2294
48.648	2482
48.656	2650
48.664	2795
48.672	2907.00000000008
48.68	2981
48.688	3025
48.696	3044
48.704	3034
48.712	3000
48.72	2949
48.728	2886
48.736	2810.99999999993
48.744	2728
48.752	2638
48.76	2542
48.768	2441
48.776	2336
48.784	2226
48.792	2114
48.8	1999.9999999999
48.808	1886
48.816	1774
48.824	1667
48.832	1569
48.84	1482
48.848	1406
48.856	1342
48.864	1290.99999999996
48.872	1256
48.88	1233
48.888	1221
48.896	1221
48.904	1230
48.912	1245
48.92	1266
48.928	1290.00000000002
48.936	1314
48.944	1338
48.952	1361
48.96	1381
48.968	1397
48.976	1409
48.984	1417
48.992	1420
49	1419
49.008	1416
49.016	1409
49.024	1400
49.032	1387.99999999999
49.04	1375
49.048	1361
49.056	1344.99999999999
49.064	1329
49.072	1312
49.08	1294
49.088	1277
49.096	1260.99999999999
49.104	1246
49.112	1232
49.12	1217.99999999999
49.128	1204
49.136	1191
49.144	1180
49.152	1169
49.16	1158.99999999999
49.168	1149
49.176	1139
49.184	1130
49.192	1121
49.2	1112
49.208	1102
49.216	1093
49.224	1084.99999999999
49.232	1077
49.24	1069
49.248	1060
49.256	1050
49.264	1041
49.272	1035
49.28	1036
49.288	1053.00000000002
49.296	1088
49.304	1143
49.312	1230
49.32	1354
49.328	1509
49.336	1686
49.344	1882
49.352	2085.00000000018
49.36	2287
49.368	2479
49.376	2648
49.384	2783
49.392	2889
49.4	2968
49.408	3013
49.416	3025
49.424	3011
49.432	2979
49.44	2930
49.448	2864
49.456	2787
49.464	2706
49.472	2618
49.48	2521.99999999991
49.488	2422
49.496	2319
49.504	2211
49.512	2098
49.52	1983
49.528	1871
49.536	1762
49.544	1658.99999999991
49.552	1565
49.56	1480
49.568	1407
49.576	1349
49.584	1303
49.592	1268
49.6	1246
49.608	1237
49.616	1238
49.624	1247
49.632	1264
49.64	1285
49.648	1310
49.656	1335
49.664	1360
49.672	1381.00000000002
49.68	1399
49.688	1414
49.696	1424
49.704	1430
49.712	1432
49.72	1430
49.728	1425
49.736	1417.99999999999
49.744	1408
49.752	1396
49.76	1382
49.768	1367
49.776	1351
49.784	1334
49.792	1317
49.8	1299.99999999998
49.808	1283
49.816	1267
49.824	1251
49.832	1237
49.84	1223
49.848	1210
49.856	1198
49.864	1185.99999999999
49.872	1175
49.88	1166
49.888	1156
49.896	1146
49.904	1137
49.912	1129
49.92	1121
49.928	1112.99999999999
49.936	1105
49.944	1097
49.952	1089
49.96	1081
49.968	1072
49.976	1061
49.984	1052
49.992	1048
50	1051
50.008	1067
50.016	1105
50.024	1176
50.032	1276.0000000001
50.04	1403
50.048	1564
50.056	1751.00000000017
50.064	1953
50.072	2159
50.08	2360
50.088	2541
50.096	2701.00000000013
50.104	2835
50.112	2935
50.12	2999.00000000004
50.128	3033
50.136	3041
50.144	3023
50.152	2984
50.16	2927.99999999995
50.168	2861
50.176	2784
50.184	2697
50.192	2605
50.2	2509
50.208	2407
50.216	2299
50.224	2187.9999999999
50.232	2076
50.24	1964
50.248	1853
50.256	1746
50.264	1644
50.272	1551
50.28	1471
50.288	1401.99999999994
50.296	1344
50.304	1299
50.312	1269
50.32	1251
50.328	1243
50.336	1247
50.344	1260
50.352	1278.00000000002
50.36	1300
50.368	1324
50.376	1348
50.384	1371
50.392	1392
50.4	1409
50.408	1423
50.416	1433.00000000001
50.424	1438
50.432	1439
50.44	1437
50.448	1431
50.456	1423
50.464	1412
50.472	1397
50.48	1381.99999999999
50.488	1366
50.496	1349
50.504	1332
50.512	1314
50.52	1297
50.528	1281
50.536	1265
50.544	1249.99999999999
50.552	1236
50.56	1222
50.568	1209
50.576	1199
50.584	1189
50.592	1178
50.6	1166
50.608	1153.99999999999
50.616	1143
50.624	1133
50.632	1123
50.64	1115
50.648	1108
50.656	1099
50.664	1090
50.672	1081.99999999999
50.68	1075
50.688	1068
50.696	1059
50.704	1050
50.712	1044
50.72	1047
50.728	1071
50.736	1115.00000000005
50.744	1182
50.752	1284
50.76	1424
50.768	1593
50.776	1783
50.784	1988
50.792	2194
50.8	2395.00000000017
50.808	2581
50.816	2740
50.824	2864
50.832	2958
50.84	3025
50.848	3058
50.856	3057
50.864	3033.99999999997
50.872	2994
50.88	2937
50.888	2868
50.896	2790
50.904	2705
50.912	2613
50.92	2514
50.928	2410.99999999991
50.936	2306
50.944	2195
50.952	2081
50.96	1967
50.968	1855
50.976	1746
50.984	1642
50.992	1546.99999999992
51	1465
51.008	1395
51.016	1338
51.024	1293
51.032	1260.99999999998
51.04	1243
51.048	1237
51.056	1240
51.064	1251
51.072	1270
51.08	1293
51.088	1319
51.096	1344.00000000002
51.104	1367
51.112	1387
51.12	1404.00000000001
51.128	1418
51.136	1428
51.144	1433
51.152	1434
51.16	1431
51.168	1425
51.176	1415
51.184	1402.99999999999
51.192	1390
51.2	1375
51.208	1359
51.216	1342
51.224	1323.99999999998
51.232	1305
51.24	1287
51.248	1271
51.256	1256
51.264	1241
51.272	1228
51.28	1215
51.288	1203.99999999999
51.296	1193
51.304	1182
51.312	1171
51.32	1161
51.328	1150
51.336	1139
51.344	1130
51.352	1119.99999999999
51.36	1111
51.368	1104
51.376	1096
51.384	1088
51.392	1080
51.4	1071
51.408	1061
51.416	1050.99999999999
51.424	1042
51.432	1038
51.44	1041
51.448	1055
51.456	1090
51.464	1158
51.472	1257
51.48	1384.00000000013
51.488	1545
51.496	1735
51.504	1940
51.512	2148
51.52	2351
51.528	2537
51.536	2702
51.544	2840.00000000011
51.552	2944
51.56	3011
51.568	3048
51.576	3060
51.584	3045
51.592	3007
51.6	2953
51.608	2887.99999999994
51.616	2811
51.624	2726
51.632	2635
51.64	2540
51.648	2439
51.656	2333
51.664	2223
51.672	2110.9999999999
51.68	1997
51.688	1884
51.696	1774
51.704	1669
51.712	1573
51.72	1490
51.728	1418
51.736	1356.99999999995
51.744	1309
51.752	1275
51.76	1255
51.768	1246
51.776	1247
51.784	1257
51.792	1273
51.8	1293.00000000002
51.808	1316
51.816	1340
51.824	1363
51.832	1384
51.84	1401
51.848	1414
51.856	1422
51.864	1427
51.872	1429
51.88	1427
51.888	1422
51.896	1413
51.904	1403
51.912	1390
51.92	1374
51.928	1357.99999999999
51.936	1341
51.944	1324
51.952	1306
51.96	1289
51.968	1272
51.976	1255
51.984	1241
51.992	1226.99999999999
52	1214
52.008	1202
52.016	1191
52.024	1181
52.032	1170.99999999999
52.04	1161
52.048	1150
52.056	1138.99999999999
52.064	1130
52.072	1120
52.08	1110
52.088	1102
52.096	1094.99999999999
52.104	1087
52.112	1079
52.12	1070.99999999999
52.128	1061
52.136	1051
52.144	1041
52.152	1033
52.16	1032
52.168	1046
52.176	1079
52.184	1136.00000000006
52.192	1225
52.2	1353
52.208	1512
52.216	1692
52.224	1892.00000000018
52.232	2100
52.24	2307
52.248	2503
52.256	2675
52.264	2813
52.272	2921
52.28	3001
52.288	3046.00000000002
52.296	3057
52.304	3044
52.312	3012
52.32	2962
52.328	2898
52.336	2824
52.344	2743
52.352	2654.99999999992
52.36	2559
52.368	2458
52.376	2353
52.384	2243
52.392	2128
52.4	2012
52.408	1898
52.416	1786.9999999999
52.424	1683
52.432	1587
52.44	1500
52.448	1423
52.456	1361
52.464	1312
52.472	1273
52.48	1247.99999999999
52.488	1237
52.496	1237
52.504	1245
52.512	1260
52.52	1280
52.528	1305
52.536	1330
52.544	1353.00000000002
52.552	1375
52.56	1393
52.568	1408
52.576	1418
52.584	1423
52.592	1425
52.6	1423
52.608	1417.99999999999
52.616	1409
52.624	1397
52.632	1384
52.64	1369
52.648	1352
52.656	1334
52.664	1317
52.672	1300.99999999999
52.68	1284
52.688	1267
52.696	1251
52.704	1236
52.712	1222
52.72	1208
52.728	1195
52.736	1183.99999999999
52.744	1173
52.752	1162
52.76	1151
52.768	1141
52.776	1131
52.784	1121
52.792	1112
52.8	1103.99999999999
52.808	1096
52.816	1088
52.824	1080
52.832	1071
52.84	1061
52.848	1052
52.856	1042
52.864	1030.99999999999
52.872	1026
52.88	1025
52.888	1033
52.896	1061
52.904	1120
52.912	1207
52.92	1322
52.928	1471.00000000015
52.936	1652
52.944	1852
52.952	2061
52.96	2270
52.968	2463
52.976	2638
52.984	2788
52.992	2905.00000000008
53	2985
53.008	3033
53.016	3056
53.024	3051
53.032	3020.99999999997
53.04	2973
53.048	2914
53.056	2842.99999999993
53.064	2762
53.072	2673
53.08	2579
53.088	2480
53.096	2374.9999999999
53.104	2266
53.112	2153
53.12	2037.9999999999
53.128	1924
53.136	1813
53.144	1706
53.152	1606
53.16	1517.99999999993
53.168	1440
53.176	1374
53.184	1321.99999999996
53.192	1283
53.2	1258
53.208	1244
53.216	1242
53.224	1250.00000000001
53.232	1264
53.24	1283
53.248	1307.00000000002
53.256	1332
53.264	1356
53.272	1378
53.28	1396
53.288	1410.00000000001
53.296	1421
53.304	1429
53.312	1432
53.32	1430
53.328	1425
53.336	1419
53.344	1410
53.352	1396.99999999999
53.36	1383
53.368	1369
53.376	1354
53.384	1337
53.392	1321
53.4	1305
53.408	1290
53.416	1274.99999999999
53.424	1260
53.432	1246
53.44	1233
53.448	1220
53.456	1207
53.464	1195
53.472	1183
53.48	1171.99999999999
53.488	1162
53.496	1152
53.504	1142
53.512	1132
53.52	1123
53.528	1115
53.536	1107
53.544	1099.99999999999
53.552	1091
53.56	1082
53.568	1072
53.576	1062
53.584	1052
53.592	1044
53.6	1043
53.608	1060.00000000002
53.616	1095
53.624	1154
53.632	1246
53.64	1376
53.648	1537
53.656	1720
53.664	1922
53.672	2130.00000000018
53.68	2335
53.688	2529
53.696	2700
53.704	2837
53.712	2943
53.72	3020
53.728	3063
53.736	3074
53.744	3059
53.752	3027
53.76	2976
53.768	2909
53.776	2834
53.784	2752
53.792	2664
53.8	2568.99999999991
53.808	2469
53.816	2366
53.824	2257
53.832	2144
53.84	2030
53.848	1918
53.856	1809
53.864	1705.99999999991
53.872	1609
53.88	1522
53.888	1446
53.896	1383
53.904	1333
53.912	1295
53.92	1271
53.928	1260
53.936	1258
53.944	1264
53.952	1279
53.96	1299
53.968	1321
53.976	1344
53.984	1365
53.992	1384.00000000001
54	1399
54.008	1412
54.016	1420
54.024	1423
54.032	1423
54.04	1421
54.048	1416
54.056	1405.99999999999
54.064	1393
54.072	1380
54.08	1365
54.088	1348
54.096	1330.99999999999
54.104	1315
54.112	1298
54.12	1280.99999999999
54.128	1265
54.136	1250
54.144	1235
54.152	1221
54.16	1206.99999999999
54.168	1193
54.176	1180
54.184	1167.99999999999
54.192	1158
54.2	1148
54.208	1138
54.216	1127
54.224	1115.99999999999
54.232	1105
54.24	1095
54.248	1084.99999999999
54.256	1075
54.264	1067
54.272	1060
54.28	1050
54.288	1037.99999999999
54.296	1027
54.304	1018
54.312	1014
54.32	1018
54.328	1036
54.336	1078
54.344	1154
54.352	1260.0000000001
54.36	1392
54.368	1557
54.376	1747
54.384	1949
54.392	2153
54.4	2348
54.408	2520
54.416	2670.00000000012
54.424	2795
54.432	2886
54.44	2941
54.448	2968
54.456	2971
54.464	2950
54.472	2907
54.48	2850.99999999995
54.488	2785
54.496	2709
54.504	2625
54.512	2536
54.52	2442
54.528	2342
54.536	2236
54.544	2125.9999999999
54.552	2015
54.56	1904
54.568	1794
54.576	1688
54.584	1588
54.592	1497
54.6	1418
54.608	1348.99999999994
54.616	1291
54.624	1246
54.632	1215
54.64	1196
54.648	1186
54.656	1185
54.664	1193
54.672	1209.00000000002
54.68	1229
54.688	1252
54.696	1274
54.704	1294
54.712	1313
54.72	1329
54.728	1339
54.736	1345
54.744	1348
54.752	1346
54.76	1340
54.768	1332
54.776	1322
54.784	1309
54.792	1294
54.8	1276.99999999999
54.808	1262
54.816	1246
54.824	1228
54.832	1209
54.84	1192
54.848	1175
54.856	1158
54.864	1141.99999999999
54.872	1128
54.88	1114
54.888	1100
54.896	1087
54.904	1076
54.912	1065
54.92	1053
54.928	1039.99999999999
54.936	1027
54.944	1016
54.952	1005
54.96	995
54.968	985
54.976	974
54.984	962
54.992	950.999999999991
55	941
55.008	930
55.016	919
55.024	911
55.032	908
55.04	917
55.048	949
55.056	1001.00000000005
55.064	1077
55.072	1186
55.08	1326
55.088	1490
55.096	1669.00000000016
55.104	1857
55.112	2041
55.12	2214.00000000015
55.128	2369
55.136	2499
55.144	2597
55.152	2667
55.16	2712.00000000002
55.168	2728
55.176	2718
55.184	2688.99999999997
55.192	2647
55.2	2592
55.208	2525
55.216	2452
55.224	2373.99999999993
55.232	2290
55.24	2198
55.248	2101.99999999991
55.256	2004
55.264	1902
55.272	1798
55.28	1694
55.288	1593.99999999991
55.296	1500
55.304	1413
55.312	1335
55.32	1267
55.328	1210
55.336	1166
55.344	1134
55.352	1110.99999999999
55.36	1099
55.368	1097
55.376	1103
55.384	1116
55.392	1133
55.4	1152
55.408	1171
55.416	1191.00000000002
55.424	1209
55.432	1223
55.44	1234
55.448	1242
55.456	1246
55.464	1246
55.472	1243
55.48	1237.99999999999
55.488	1230
55.496	1219
55.504	1207
55.512	1195
55.52	1181
55.528	1164
55.536	1147
55.544	1131.99999999999
55.552	1116
55.56	1101
55.568	1087
55.576	1073
55.584	1060
55.592	1048
55.6	1036
55.608	1022.99999999999
55.616	1012
55.624	1001
55.632	990
55.64	978
55.648	966
55.656	955
55.664	945
55.672	933.99999999999
55.68	923
55.688	914
55.696	906
55.704	898
55.712	888
55.72	878
55.728	868
55.736	858.999999999995
55.744	855
55.752	863
55.76	885
55.768	924
55.776	989
55.784	1087
55.792	1210
55.8	1353.00000000014
55.808	1517
55.816	1689
55.824	1862
55.832	2026
55.84	2172
55.848	2293
55.856	2391
55.864	2466.00000000005
55.872	2512
55.88	2530
55.888	2526
55.896	2507
55.904	2474
55.912	2426
55.92	2369
55.928	2306.99999999994
55.936	2239
55.944	2164
55.952	2083
55.96	1999
55.968	1911
55.976	1820
55.984	1727
55.992	1634.99999999992
56	1544
56.008	1457
56.016	1377
56.024	1305
56.032	1242.99999999995
56.04	1191
56.048	1148
56.056	1113.99999999998
56.064	1091
56.072	1079
56.08	1076
56.088	1079
56.096	1088.00000000001
56.104	1101
56.112	1118
56.12	1136.00000000002
56.128	1154
56.136	1169
56.144	1182
56.152	1193
56.16	1201
56.168	1204
56.176	1204
56.184	1204
56.192	1201
56.2	1194
56.208	1185
56.216	1176
56.224	1164.99999999999
56.232	1152
56.24	1138
56.248	1124.99999999999
56.256	1112
56.264	1099
56.272	1086
56.28	1072
56.288	1059.99999999999
56.296	1049
56.304	1038
56.312	1025.99999999999
56.32	1015
56.328	1005
56.336	994
56.344	983
56.352	973.999999999992
56.36	964
56.368	954
56.376	945
56.384	936
56.392	926
56.4	917
56.408	910
56.416	902.999999999993
56.424	895
56.432	886
56.44	875
56.448	865
56.456	862
56.464	865
56.472	879
56.48	912.000000000038
56.488	971
56.496	1056
56.504	1163
56.512	1295
56.52	1445
56.528	1606
56.536	1768
56.544	1923.00000000013
56.552	2061
56.56	2180
56.568	2278
56.576	2350
56.584	2394
56.592	2414
56.6	2416
56.608	2400.99999999998
56.616	2371
56.624	2330
56.632	2283
56.64	2229
56.648	2167
56.656	2101
56.664	2032
56.672	1957.99999999993
56.68	1878
56.688	1794
56.696	1710
56.704	1626
56.712	1544
56.72	1466
56.728	1392
56.736	1323.99999999994
56.744	1266
56.752	1216
56.76	1173
56.768	1141
56.776	1119
56.784	1106
56.792	1101
56.8	1103
56.808	1110
56.816	1121
56.824	1136
56.832	1153
56.84	1170
56.848	1185
56.856	1200
56.864	1211.00000000001
56.872	1219
56.88	1224
56.888	1226
56.896	1225
56.904	1221
56.912	1215
56.92	1208
56.928	1199.99999999999
56.936	1190
56.944	1178
56.952	1167
56.96	1156
56.968	1143
56.976	1131
56.984	1118
56.992	1104.99999999999
57	1094
57.008	1082
57.016	1071
57.024	1061
57.032	1050.99999999999
57.04	1042
57.048	1033
57.056	1024.99999999999
57.064	1017
57.072	1009
57.08	1000
57.088	991
57.096	983.999999999993
57.104	976
57.112	968
57.12	959.999999999993
57.128	952
57.136	944
57.144	936
57.152	927
57.16	918.999999999993
57.168	912
57.176	909
57.184	918.000000000012
57.192	946
57.2	993
57.208	1059
57.216	1152
57.224	1272.00000000011
57.232	1411
57.24	1560
57.248	1715.00000000014
57.256	1866
57.264	2005
57.272	2131
57.28	2234
57.288	2308.00000000005
57.296	2360
57.304	2392
57.312	2401
57.32	2391
57.328	2367
57.336	2333
57.344	2291
57.352	2241.99999999995
57.36	2186
57.368	2126
57.376	2062
57.384	1994
57.392	1923
57.4	1850
57.408	1773
57.416	1694.99999999993
57.424	1618
57.432	1543
57.44	1472
57.448	1407
57.456	1349
57.464	1298
57.472	1256
57.48	1223.99999999998
57.488	1200
57.496	1183
57.504	1175
57.512	1174
57.52	1178
57.528	1187
57.536	1200
57.544	1214.00000000001
57.552	1230
57.56	1246
57.568	1259
57.576	1270
57.584	1280
57.592	1288
57.6	1292
57.608	1292
57.616	1290
57.624	1287
57.632	1278
57.64	1271
57.648	1262
57.656	1242
57.664	1231
57.672	1219.99999999999
57.68	1197
57.688	1186
57.696	1174
57.704	1159
57.712	1150
57.72	1141
57.728	1133
57.736	1120.99999999999
57.744	1113
57.752	1104
57.76	1090
57.768	1081
57.776	1072
57.784	1062
57.792	1054
57.8	1046.99999999999
57.808	1040
57.816	1033
57.824	1026
57.832	1016
57.84	1006
57.848	997
57.856	992
57.864	997.000000000007
57.872	1013
57.88	1043
57.888	1096
57.896	1177
57.904	1282
57.912	1405
57.92	1547
57.928	1696.00000000013
57.936	1846
57.944	1990
57.952	2118
57.96	2223
57.968	2308
57.976	2372
57.984	2411
57.992	2427
58	2424
58.008	2406
58.016	2375
58.024	2335
58.032	2288.99999999996
58.04	2239
58.048	2184
58.056	2122.99999999994
58.064	2060
58.072	1993
58.08	1922
58.088	1848
58.096	1772.99999999993
58.104	1700
58.112	1628
58.12	1558.99999999994
58.128	1495
58.136	1435
58.144	1382
58.152	1338
58.16	1301.99999999997
58.168	1273
58.176	1254
58.184	1244
58.192	1241
58.2	1243
58.208	1249
58.216	1259
58.224	1273.00000000001
58.232	1288
58.24	1302
58.248	1315.00000000001
58.256	1327
58.264	1338
58.272	1345
58.28	1349
58.288	1352
58.296	1353
58.304	1351
58.312	1344.99999999999
58.32	1338
58.328	1331
58.336	1323
58.344	1313
58.352	1303.99999999999
58.36	1294
58.368	1282
58.376	1270
58.384	1258
58.392	1247
58.4	1237
58.408	1227
58.416	1217.99999999999
58.424	1210
58.432	1203
58.44	1195
58.448	1186
58.456	1177
58.464	1169
58.472	1160
58.48	1149.99999999999
58.488	1141
58.496	1134
58.504	1126
58.512	1117
58.52	1110
58.528	1102
58.536	1093
58.544	1084.99999999999
58.552	1076
58.56	1066
58.568	1058
58.576	1053
58.584	1055
58.592	1070
58.6	1106
58.608	1162.00000000006
58.616	1238
58.624	1341
58.632	1468
58.64	1608
58.648	1756
58.656	1905
58.664	2043
58.672	2168.0000000001
58.68	2276
58.688	2360
58.696	2417
58.704	2453
58.712	2471
58.72	2468
58.728	2448
58.736	2417.99999999997
58.744	2380
58.752	2334
58.76	2283
58.768	2228
58.776	2169
58.784	2107
58.792	2040
58.8	1969.99999999994
58.808	1899
58.816	1826
58.824	1750
58.832	1677
58.84	1609
58.848	1544
58.856	1485
58.864	1434.99999999996
58.872	1391
58.88	1354
58.888	1327
58.896	1309
58.904	1297
58.912	1293
58.92	1296
58.928	1304.00000000001
58.936	1316
58.944	1330
58.952	1345
58.96	1361
58.968	1376
58.976	1388
58.984	1398
58.992	1406.00000000001
59	1411
59.008	1414
59.016	1413
59.024	1410
59.032	1406
59.04	1402
59.048	1397
59.056	1390.99999999999
59.064	1384
59.072	1375
59.08	1365
59.088	1355
59.096	1345.99999999999
59.104	1336
59.112	1326
59.12	1316.99999999999
59.128	1309
59.136	1302
59.144	1294
59.152	1286
59.16	1277.99999999999
59.168	1269
59.176	1261
59.184	1252.99999999999
59.192	1245
59.2	1236
59.208	1226
59.216	1217
59.224	1208.99999999999
59.232	1201
59.24	1192
59.248	1182.99999999999
59.256	1176
59.264	1168
59.272	1159
59.28	1150
59.288	1141.99999999999
59.296	1137
59.304	1143
59.312	1161.00000000002
59.32	1195
59.328	1253
59.336	1338
59.344	1446
59.352	1574.00000000012
59.36	1721
59.368	1876
59.376	2031.00000000014
59.384	2181
59.392	2315
59.4	2425
59.408	2514
59.416	2582.00000000005
59.424	2625
59.432	2644
59.44	2643
59.448	2630
59.456	2604
59.464	2565
59.472	2518
59.48	2465.99999999995
59.488	2409
59.496	2346
59.504	2279
59.512	2211
59.52	2139
59.528	2064
59.536	1987
59.544	1910.99999999993
59.552	1836
59.56	1764
59.568	1696
59.576	1633
59.584	1580
59.592	1535
59.6	1497
59.608	1467.99999999998
59.616	1448
59.624	1436
59.632	1431
59.64	1432
59.648	1438
59.656	1449
59.664	1464
59.672	1480.00000000001
59.68	1496
59.688	1511
59.696	1525
59.704	1536
59.712	1543
59.72	1547
59.728	1548
59.736	1547
59.744	1545
59.752	1541
59.76	1535
59.768	1526
59.776	1515
59.784	1505
59.792	1494
59.8	1480.99999999999
59.808	1468
59.816	1456
59.824	1445
59.832	1434
59.84	1421
59.848	1409
59.856	1399
59.864	1389.99999999999
59.872	1380
59.88	1370
59.888	1360
59.896	1350
59.904	1341
59.912	1332
59.92	1322
59.928	1311.99999999999
59.936	1302
59.944	1292
59.952	1282
59.96	1272
59.968	1262
59.976	1252
59.984	1243
59.992	1234.99999999999
60	1225
60.008	1217
60.016	1212
60.024	1213
60.032	1228.00000000002
60.04	1264
60.048	1321
60.056	1400.00000000008
60.064	1506
60.072	1639
60.08	1791
60.088	1950
60.096	2111.00000000014
60.104	2264
60.112	2403
60.12	2527.0000000001
60.128	2627
60.136	2698
60.144	2744
60.152	2770
60.16	2774
60.168	2758
60.176	2729
60.184	2692.99999999996
60.192	2647
60.2	2591
60.208	2531
60.216	2469
60.224	2401.99999999994
60.232	2328
60.24	2251
60.248	2172.99999999993
60.256	2092
60.264	2010
60.272	1929
60.28	1851
60.288	1777.99999999994
60.296	1712
60.304	1652
60.312	1599.99999999996
60.32	1559
60.328	1528
60.336	1504
60.344	1488
60.352	1481
60.36	1482
60.368	1488
60.376	1499.00000000001
60.384	1515
60.392	1532
60.4	1548
60.408	1564
60.416	1579.00000000001
60.424	1590
60.432	1597
60.44	1603
60.448	1605
60.456	1604
60.464	1601
60.472	1596
60.48	1586.99999999999
60.488	1577
60.496	1566
60.504	1554
60.512	1541
60.52	1528
60.528	1514
60.536	1500
60.544	1486.99999999999
60.552	1474
60.56	1460
60.568	1447
60.576	1435
60.584	1423
60.592	1412
60.6	1401
60.608	1388.99999999999
60.616	1377
60.624	1365
60.632	1352
60.64	1340
60.648	1329
60.656	1319
60.664	1309
60.672	1298.99999999999
60.68	1289
60.688	1279
60.696	1269
60.704	1259
60.712	1249
60.72	1239
60.728	1231
60.736	1227
60.744	1233
60.752	1250
60.76	1282
60.768	1339
60.776	1426
60.784	1538
60.792	1671
60.8	1824.00000000014
60.808	1987
60.816	2153
60.824	2313
60.832	2458
60.84	2578
60.848	2676
60.856	2754
60.864	2806.00000000003
60.872	2831
60.88	2836
60.888	2825
60.896	2798
60.904	2756
60.912	2706
60.92	2650
60.928	2586.99999999994
60.936	2519
60.944	2447
60.952	2371
60.96	2290
60.968	2205
60.976	2118
60.984	2030
60.992	1943.99999999993
61	1862
61.008	1786
61.016	1716
61.024	1654
61.032	1602.99999999996
61.04	1562
61.048	1530
61.056	1507.99999999998
61.064	1494
61.072	1489
61.08	1492
61.088	1500
61.096	1512.00000000001
61.104	1527
61.112	1544
61.12	1560.00000000001
61.128	1575
61.136	1589
61.144	1601
61.152	1610
61.16	1615
61.168	1617
61.176	1616
61.184	1612
61.192	1605
61.2	1596
61.208	1585
61.216	1573
61.224	1559.99999999999
61.232	1546
61.24	1531
61.248	1516.99999999999
61.256	1503
61.264	1489
61.272	1475
61.28	1461
61.288	1446.99999999999
61.296	1434
61.304	1422
61.312	1409.99999999999
61.32	1399
61.328	1389
61.336	1378
61.344	1367
61.352	1356.99999999999
61.36	1345
61.368	1333
61.376	1321.99999999999
61.384	1310
61.392	1300
61.4	1292
61.408	1284
61.416	1273.99999999999
61.424	1263
61.432	1252
61.44	1239
61.448	1230
61.456	1225
61.464	1228
61.472	1245
61.48	1288.00000000005
61.488	1355
61.496	1447
61.504	1568
61.512	1715
61.52	1882
61.528	2057
61.536	2234
61.544	2400.00000000014
61.552	2553
61.56	2689
61.568	2798
61.576	2876
61.584	2929
61.592	2960
61.6	2966
61.608	2949.99999999998
61.616	2918
61.624	2875
61.632	2822
61.64	2760
61.648	2692
61.656	2618
61.664	2538
61.672	2452.99999999992
61.68	2365
61.688	2275
61.696	2182
61.704	2089
61.712	1999
61.72	1912
61.728	1830
61.736	1756.99999999994
61.744	1693
61.752	1637
61.76	1592
61.768	1557
61.776	1532
61.784	1516
61.792	1511
61.8	1516.00000000001
61.808	1526
61.816	1539
61.824	1555
61.832	1572
61.84	1589
61.848	1606
61.856	1619
61.864	1629.00000000001
61.872	1636
61.88	1640
61.888	1641
61.896	1639
61.904	1635
61.912	1628
61.92	1618
61.928	1605.99999999999
61.936	1592
61.944	1578
61.952	1562
61.96	1546
61.968	1531
61.976	1516
61.984	1500
61.992	1483.99999999999
62	1468
62.008	1454
62.016	1442
62.024	1429
62.032	1416.99999999999
62.04	1406
62.048	1393
62.056	1379.99999999999
62.064	1367
62.072	1355
62.08	1343
62.088	1331
62.096	1319.99999999999
62.104	1308
62.112	1296
62.12	1284.99999999999
62.128	1275
62.136	1266
62.144	1255
62.152	1243
62.16	1230.99999999999
62.168	1221
62.176	1217
62.184	1227.00000000001
62.192	1253
62.2	1298
62.208	1371
62.216	1479
62.224	1615.00000000013
62.232	1772
62.24	1947
62.248	2132.00000000016
62.256	2317
62.264	2493
62.272	2651
62.28	2782
62.288	2888.00000000008
62.296	2969
62.304	3019
62.312	3040
62.32	3038
62.328	3019
62.336	2983
62.344	2932
62.352	2870.99999999994
62.36	2804
62.368	2730
62.376	2648.99999999993
62.384	2563
62.392	2474
62.4	2380
62.408	2282
62.416	2181.99999999991
62.424	2082
62.432	1985
62.44	1893.99999999992
62.448	1809
62.456	1733
62.464	1666
62.472	1610
62.48	1564.99999999996
62.488	1530
62.496	1506
62.504	1494
62.512	1490
62.52	1493
62.528	1503
62.536	1517
62.544	1535.00000000002
62.552	1555
62.56	1573
62.568	1588
62.576	1601
62.584	1611
62.592	1618
62.6	1621
62.608	1621
62.616	1619
62.624	1613
62.632	1604
62.64	1592
62.648	1578
62.656	1563
62.664	1548
62.672	1531.99999999999
62.68	1516
62.688	1499
62.696	1482
62.704	1465
62.712	1450
62.72	1435
62.728	1420
62.736	1403.99999999999
62.744	1390
62.752	1378
62.76	1365
62.768	1352
62.776	1339
62.784	1327
62.792	1315
62.8	1303.99999999999
62.808	1293
62.816	1282
62.824	1271
62.832	1261
62.84	1251
62.848	1240
62.856	1227
62.864	1215.99999999999
62.872	1204
62.88	1192
62.888	1185
62.896	1184
62.904	1192
62.912	1218
62.92	1274
62.928	1359.00000000009
62.936	1469
62.944	1611
62.952	1782
62.96	1969
62.968	2163
62.976	2355
62.984	2533
62.992	2694.00000000013
63	2833
63.008	2942
63.016	3016
63.024	3062
63.032	3084
63.04	3081
63.048	3055
63.056	3011.99999999996
63.064	2958
63.072	2893
63.08	2820
63.088	2741
63.096	2657.99999999992
63.104	2568
63.112	2471
63.12	2370.99999999991
63.128	2269
63.136	2165
63.144	2063
63.152	1963
63.16	1865.99999999992
63.168	1776
63.176	1698
63.184	1629.99999999994
63.192	1571
63.2	1524
63.208	1489
63.216	1467
63.224	1453.99999999999
63.232	1450
63.24	1455
63.248	1467.00000000001
63.256	1483
63.264	1501
63.272	1519
63.28	1537
63.288	1554.00000000001
63.296	1568
63.304	1579
63.312	1586
63.32	1588
63.328	1587
63.336	1583
63.344	1576
63.352	1565.99999999999
63.36	1553
63.368	1539
63.376	1523.99999999999
63.384	1507
63.392	1490
63.4	1472
63.408	1454
63.416	1436.99999999999
63.424	1421
63.432	1405
63.44	1388.99999999999
63.448	1374
63.456	1360
63.464	1346
63.472	1332
63.48	1318.99999999999
63.488	1307
63.496	1296
63.504	1284
63.512	1272
63.52	1261
63.528	1250
63.536	1238
63.544	1226.99999999999
63.552	1217
63.56	1207
63.568	1196
63.576	1184
63.584	1172
63.592	1158
63.6	1145
63.608	1137
63.616	1136
63.624	1151
63.632	1185
63.64	1241
63.648	1329
63.656	1454
63.664	1609
63.672	1785.00000000016
63.68	1979
63.688	2180
63.696	2379
63.704	2568
63.712	2735
63.72	2871
63.728	2977
63.736	3055.00000000005
63.744	3100
63.752	3114
63.76	3104
63.768	3076
63.776	3030
63.784	2969
63.792	2899
63.8	2822.99999999993
63.808	2740
63.816	2648
63.824	2552
63.832	2453
63.84	2350
63.848	2242
63.856	2133
63.864	2027.99999999991
63.872	1925
63.88	1828
63.888	1739
63.896	1659
63.904	1590
63.912	1534
63.92	1489
63.928	1454.99999999998
63.936	1433
63.944	1423
63.952	1422
63.96	1427
63.968	1439
63.976	1455
63.984	1475
63.992	1497.00000000002
64	1516
64.008	1530
64.016	1543
64.024	1554
64.032	1560
64.04	1563
64.048	1563
64.056	1560
64.064	1553.99999999999
64.072	1545
64.08	1534
64.088	1520.99999999998
64.096	1507
64.104	1491
64.112	1474
64.12	1456
64.128	1438
64.136	1421
64.144	1405
64.152	1390
64.16	1374
64.168	1357
64.176	1342
64.184	1328
64.192	1314.99999999998
64.2	1303
64.208	1292
64.216	1280.99999999998
64.224	1270
64.232	1257
64.24	1245
64.248	1234
64.256	1222
64.264	1210
64.272	1198
64.28	1187
64.288	1177
64.296	1165
64.304	1153
64.312	1142
64.32	1129.99999999998
64.328	1123
64.336	1123
64.344	1133.00000000003
64.352	1166
64.36	1232
64.368	1326
64.376	1448
64.384	1604
64.392	1789
64.4	1993
64.408	2202
64.416	2408
64.424	2598
64.432	2768
64.44	2913
64.448	3025.00000000016
64.456	3099
64.464	3141
64.472	3159
64.48	3149
64.488	3114
64.496	3063
64.504	3002
64.512	2930
64.52	2849
64.528	2762
64.536	2670
64.544	2572
64.552	2467
64.56	2359
64.568	2249
64.576	2136.9999999998
64.584	2027
64.592	1920
64.6	1818
64.608	1725
64.616	1643
64.624	1571
64.632	1509
64.64	1460
64.648	1425
64.656	1402
64.664	1389
64.672	1388
64.68	1395
64.688	1410
64.696	1428
64.704	1449.00000000004
64.712	1471
64.72	1492
64.728	1512
64.736	1528
64.744	1539
64.752	1547
64.76	1551
64.768	1551
64.776	1548
64.784	1541
64.792	1532
64.8	1520
64.808	1506
64.816	1491
64.824	1475
64.832	1456.99999999997
64.84	1438
64.848	1420
64.856	1403
64.864	1386
64.872	1369
64.88	1354
64.888	1339
64.896	1325
64.904	1312
64.912	1299
64.92	1287
64.928	1275
64.936	1262
64.944	1249
64.952	1238
64.96	1225.99999999998
64.968	1214
64.976	1202
64.984	1192
64.992	1183
65	1174
65.008	1164
65.016	1154
65.024	1144
65.032	1133
65.04	1123
65.048	1116
65.056	1115
65.064	1132.00000000004
65.072	1168
65.08	1227
65.088	1320.00000000019
65.096	1451
65.104	1615
65.112	1802
65.12	2008
65.128	2221
65.136	2433
65.144	2634
65.152	2811
65.16	2952
65.168	3059
65.176	3139
65.184	3184
65.192	3193
65.2	3177
65.208	3142
65.216	3087.99999999989
65.224	3021
65.232	2946
65.24	2863
65.248	2774
65.256	2678
65.264	2577
65.272	2472
65.28	2362
65.288	2250
65.296	2136
65.304	2023
65.312	1913
65.32	1809.99999999982
65.328	1715
65.336	1629
65.344	1555.99999999989
65.352	1498
65.36	1452
65.368	1417
65.376	1397
65.384	1389
65.392	1390
65.4	1399
65.408	1416
65.416	1436
65.424	1459
65.432	1484
65.44	1507
65.448	1527.00000000003
65.456	1544
65.464	1557
65.472	1565.00000000001
65.48	1568
65.488	1567
65.496	1564
65.504	1557
65.512	1547
65.52	1534
65.528	1518
65.536	1501
65.544	1484
65.552	1466
65.56	1447
65.568	1428
65.576	1409.99999999997
65.584	1393
65.592	1376
65.6	1358
65.608	1342
65.616	1328
65.624	1314
65.632	1300
65.64	1286
65.648	1272
65.656	1259
65.664	1248
65.672	1237
65.68	1227
65.688	1216
65.696	1204
65.704	1192.99999999998
65.712	1183
65.72	1173
65.728	1163
65.736	1153
65.744	1142
65.752	1129
65.76	1117
65.768	1110
65.776	1109
65.784	1121
65.792	1152
65.8	1213
65.808	1306
65.816	1428
65.824	1586
65.832	1774.00000000035
65.84	1981
65.848	2196
65.856	2409
65.864	2606
65.872	2782
65.88	2933
65.888	3048
65.896	3123
65.904	3167
65.912	3184
65.92	3171
65.928	3134
65.936	3080
65.944	3015
65.952	2940
65.96	2855.99999999985
65.968	2766
65.976	2671
65.984	2571
65.992	2465
66	2354
66.008	2240
66.016	2125
66.024	2011
66.032	1900
66.04	1795
66.048	1699
66.056	1614
66.064	1538.99999999988
66.072	1476
66.08	1426
66.088	1389.99999999995
66.096	1366
66.104	1353
66.112	1352
66.12	1360
66.128	1376
66.136	1397
66.144	1421
66.152	1444
66.16	1466
66.168	1487
66.176	1505
66.184	1518
66.192	1526.00000000001
66.2	1531
66.208	1532
66.216	1527.99999999999
66.224	1521
66.232	1511
66.24	1498
66.248	1483
66.256	1467
66.264	1450
66.272	1432
66.28	1413
66.288	1395
66.296	1378
66.304	1360
66.312	1342
66.32	1325.99999999997
66.328	1311
66.336	1296
66.344	1280.99999999998
66.352	1269
66.36	1257
66.368	1244
66.376	1231
66.384	1219
66.392	1207
66.4	1195
66.408	1183
66.416	1173
66.424	1164
66.432	1154
66.44	1143
66.448	1131.99999999998
66.456	1121
66.464	1110
66.472	1098.99999999998
66.48	1089
66.488	1081
66.496	1079
66.504	1092
66.512	1123
66.52	1176
66.528	1261
66.536	1387
66.544	1544
66.552	1724
66.56	1927
66.568	2140
66.576	2353.00000000037
66.584	2557
66.592	2739
66.6	2887
66.608	3004
66.616	3091
66.624	3141
66.632	3155
66.64	3143
66.648	3111
66.656	3059
66.664	2993
66.672	2917
66.68	2834
66.688	2745
66.696	2650
66.704	2548.99999999982
66.712	2444
66.72	2333
66.728	2220
66.736	2106
66.744	1992
66.752	1881
66.76	1778
66.768	1681
66.776	1594
66.784	1518
66.792	1455
66.8	1405
66.808	1366
66.816	1340
66.824	1327
66.832	1324
66.84	1330
66.848	1345
66.856	1364
66.864	1385
66.872	1408
66.88	1429
66.888	1448
66.896	1463
66.904	1477
66.912	1487
66.92	1491
66.928	1491
66.936	1487
66.944	1479
66.952	1469
66.96	1456.99999999998
66.968	1443
66.976	1428
66.984	1411
66.992	1393
67	1374
67.008	1354
67.016	1334
67.024	1315
67.032	1299
67.04	1285
67.048	1271
67.056	1258
67.064	1245.99999999998
67.072	1233
67.08	1220
67.088	1207.99999999998
67.096	1196
67.104	1184
67.112	1173
67.12	1162
67.128	1151
67.136	1141
67.144	1131
67.152	1121
67.16	1111
67.168	1101
67.176	1090
67.184	1079
67.192	1068.99999999998
67.2	1059
67.208	1052
67.216	1049
67.224	1057
67.232	1085
67.24	1144
67.248	1230
67.256	1344
67.264	1495
67.272	1679
67.28	1883
67.288	2097
67.296	2313
67.304	2514
67.312	2695
67.32	2854.00000000025
67.328	2977
67.336	3060
67.344	3110.00000000005
67.352	3132
67.36	3124
67.368	3090
67.376	3038
67.384	2975
67.392	2901
67.4	2816
67.408	2725
67.416	2630
67.424	2526
67.432	2416
67.44	2303
67.448	2187.99999999979
67.456	2071
67.464	1957
67.472	1846.99999999981
67.48	1742
67.488	1645
67.496	1560
67.504	1485
67.512	1422
67.52	1373
67.528	1339
67.536	1316
67.544	1303
67.552	1301
67.56	1309
67.568	1325
67.576	1346.00000000004
67.584	1369
67.592	1394
67.6	1418
67.608	1439
67.616	1457
67.624	1470
67.632	1479
67.64	1486
67.648	1487
67.656	1484
67.664	1478
67.672	1469
67.68	1458
67.688	1444
67.696	1428
67.704	1410.99999999997
67.712	1393
67.72	1375
67.728	1357
67.736	1339
67.744	1322
67.752	1305
67.76	1289
67.768	1274
67.776	1260
67.784	1247
67.792	1234
67.8	1221
67.808	1210
67.816	1198
67.824	1186
67.832	1174.99999999998
67.84	1165
67.848	1153
67.856	1142
67.864	1132
67.872	1122
67.88	1113
67.888	1104
67.896	1094
67.904	1084
67.912	1073
67.92	1062
67.928	1053
67.936	1051
67.944	1063
67.952	1092
67.96	1142.00000000013
67.968	1286
67.976	1425
67.984	1591
67.992	1990
68	2205
68.008	2416
68.016	2778
68.024	2913
68.032	3018
68.04	3124
68.048	3126
68.056	3104
68.064	3039.99999999988
68.072	2974
68.08	2898
68.088	2815.99999999985
68.096	2726
68.104	2626
68.112	2521
68.12	2414
68.128	2301
68.136	2185
68.144	2069
68.152	1955
68.16	1844
68.168	1740
68.176	1644
68.184	1557
68.192	1482.99999999988
68.2	1423
68.208	1375
68.216	1337.99999999995
68.224	1313
68.232	1302
68.24	1302
68.248	1310
68.256	1326
68.264	1348
68.272	1373
68.28	1399
68.288	1423
68.296	1444
68.304	1462
68.312	1476
68.32	1485.00000000001
68.328	1490
68.336	1491
68.344	1488.99999999999
68.352	1482
68.36	1471
68.368	1459
68.376	1446
68.384	1431
68.392	1415
68.4	1397
68.408	1379
68.416	1361
68.424	1343
68.432	1327
68.44	1312
68.448	1295.99999999997
68.456	1280
68.464	1264
68.472	1248.99999999998
68.48	1236
68.488	1223
68.496	1211
68.504	1199
68.512	1188
68.52	1177
68.528	1167
68.536	1157
68.544	1147
68.552	1138
68.56	1128
68.568	1118
68.576	1107.99999999998
68.584	1097
68.592	1087
68.6	1075.99999999998
68.608	1065
68.616	1060
68.624	1060
68.632	1072
68.64	1105
68.648	1172
68.656	1268
68.664	1392
68.672	1553
68.68	1744
68.688	1953
68.696	2170
68.704	2384.00000000036
68.712	2581
68.72	2757
68.728	2908
68.736	3023
68.744	3097
68.752	3138
68.76	3152
68.768	3136
68.776	3095
68.784	3039
68.792	2973
68.8	2895
68.808	2807
68.816	2713
68.824	2614
68.832	2508.99999999981
68.84	2399
68.848	2286
68.856	2172
68.864	2056
68.872	1940
68.88	1829
68.888	1725
68.896	1629
68.904	1545
68.912	1473
68.92	1412
68.928	1364
68.936	1332
68.944	1312
68.952	1302
68.96	1303
68.968	1314
68.976	1332
68.984	1354
68.992	1379
69	1404
69.008	1425
69.016	1445
69.024	1462
69.032	1474
69.04	1483
69.048	1489
69.056	1490
69.064	1485.99999999999
69.072	1479
69.08	1470
69.088	1456.99999999998
69.096	1443
69.104	1427
69.112	1409
69.12	1391
69.128	1373
69.136	1355
69.144	1337
69.152	1319
69.16	1302
69.168	1286
69.176	1272
69.184	1258
69.192	1243.99999999998
69.2	1232
69.208	1221
69.216	1208.99999999998
69.224	1196
69.232	1184
69.24	1173
69.248	1163
69.256	1154
69.264	1143
69.272	1133
69.28	1124
69.288	1113
69.296	1103
69.304	1093
69.312	1083
69.32	1072.99999999998
69.328	1062
69.336	1055
69.344	1058.00000000001
69.352	1079
69.36	1121
69.368	1187
69.376	1289
69.384	1431
69.392	1604
69.4	1799
69.408	2013
69.416	2231
69.424	2445
69.432	2645
69.44	2818
69.448	2953.00000000021
69.456	3056
69.464	3127
69.472	3162
69.48	3162
69.488	3138
69.496	3097
69.504	3039
69.512	2967
69.52	2885
69.528	2796
69.536	2700
69.544	2597
69.552	2490
69.56	2380
69.568	2267
69.576	2150.99999999979
69.584	2033
69.592	1918
69.6	1807.99999999981
69.608	1707
69.616	1614
69.624	1530
69.632	1460
69.64	1404
69.648	1360
69.656	1328
69.664	1310
69.672	1303
69.68	1306
69.688	1316
69.696	1333
