Time	PPG1
0	1110
0.008	1102
0.016	1093
0.024	1086
0.032	1079
0.04	1073
0.048	1067
0.056	1059
0.064	1050
0.072	1045
0.08	1045
0.088	1052
0.096	1076
0.104	1129
0.112	1209
0.12	1315
0.128	1456
0.136	1628
0.144	1820
0.152	2022
0.16	2226
0.168	2418
0.176	2596
0.184	2754
0.192	2881
0.2	2972
0.208	3031
0.216	3066
0.224	3072
0.232	3052
0.24	3013
0.248	2961
0.256	2897
0.264	2822
0.272	2739
0.28	2652
0.288	2558
0.296	2458
0.304	2354
0.312	2247
0.32	2137
0.328	2026
0.336	1916
0.344	1809
0.352	1709
0.36	1618
0.368	1536
0.376	1465
0.384	1407
0.392	1363
0.4	1333
0.408	1314
0.416	1305
0.424	1308
0.432	1319
0.44	1337
0.448	1359
0.456	1381
0.464	1403
0.472	1425
0.48	1444
0.488	1458
0.496	1469
0.504	1477
0.512	1480
0.52	1477
0.528	1472
0.536	1465
0.544	1455
0.552	1441
0.56	1425
0.568	1408
0.576	1389
0.584	1370
0.592	1351
0.6	1333
0.608	1314
0.616	1296
0.624	1280
0.632	1264
0.64	1249
0.648	1236
0.656	1223
0.664	1212
0.672	1201
0.68	1190
0.688	1179
0.696	1169
0.704	1159
0.712	1149
0.72	1139
0.728	1130
0.736	1121
0.744	1113
0.752	1105
0.76	1098
0.768	1091
0.776	1084
0.784	1077
0.792	1070
0.8	1060
0.808	1050
0.816	1042
0.824	1038
0.832	1044
0.84	1070
0.848	1116
0.856	1185
0.864	1288
0.872	1427
0.88	1594
0.888	1780
0.896	1980
0.904	2180
0.912	2375
0.92	2557
0.928	2714
0.936	2837
0.944	2931
0.952	2999
0.96	3036
0.968	3042
0.976	3024
0.984	2989
0.992	2939
1	2875
1.008	2803
1.016	2724
1.024	2637
1.032	2544
1.04	2445
1.048	2344
1.056	2238
1.064	2127
1.072	2015
1.08	1905
1.088	1798
1.096	1698
1.104	1607
1.112	1526
1.12	1456
1.128	1399
1.136	1355
1.144	1322
1.152	1301
1.16	1294
1.168	1296
1.176	1306
1.184	1323
1.192	1345
1.2	1369
1.208	1392
1.216	1413
1.224	1432
1.232	1447
1.24	1458
1.248	1463
1.256	1465
1.264	1463
1.272	1457
1.28	1449
1.288	1438
1.296	1424
1.304	1409
1.312	1392
1.32	1372
1.328	1351
1.336	1331
1.344	1310
1.352	1288
1.36	1268
1.368	1250
1.376	1233
1.384	1219
1.392	1207
1.4	1196
1.408	1185
1.416	1175
1.424	1167
1.432	1160
1.44	1152
1.448	1144
1.456	1137
1.464	1131
1.472	1124
1.48	1115
1.488	1106
1.496	1096
1.504	1086
1.512	1077
1.52	1070
1.528	1063
1.536	1055
1.544	1045
1.552	1035
1.56	1027
1.568	1022
1.576	1027
1.584	1045
1.592	1078
1.6	1138
1.608	1234
1.616	1359
1.624	1509
1.632	1686.00000000001
1.64	1879.00000000001
1.648	2079.00000000001
1.656	2275.00000000001
1.664	2458
1.672	2616
1.68	2749
1.688	2857
1.696	2932
1.704	2974
1.712	2990
1.72	2984
1.728	2957
1.736	2912
1.744	2851
1.752	2781
1.76	2703
1.768	2617
1.776	2525
1.784	2429
1.792	2328
1.8	2221
1.808	2111
1.816	2000
1.824	1889
1.832	1782
1.84	1679
1.848	1583
1.856	1498
1.864	1427
1.872	1369
1.88	1322
1.888	1289
1.896	1271
1.904	1262
1.912	1262
1.92	1272
1.928	1288
1.936	1308
1.944	1331
1.952	1357
1.96	1381
1.968	1402
1.976	1420
1.984	1434
1.992	1442
2	1445
2.008	1446
2.016	1442
2.024	1433
2.032	1423
2.04	1412
2.048	1398
2.056	1382
2.064	1365
2.072	1348
2.08	1329
2.088	1311
2.096	1294
2.104	1276
2.112	1258
2.12	1241
2.128	1226
2.136	1212
2.144	1200
2.152	1188
2.16	1176
2.168	1166
2.176	1157
2.184	1149
2.192	1141
2.2	1133
2.208	1124
2.216	1114
2.224	1106
2.232	1099
2.24	1092
2.248	1085
2.256	1079
2.264	1072
2.272	1065
2.28	1058
2.288	1049
2.296	1040
2.304	1031
2.312	1027
2.32	1028
2.328	1038
2.336	1066
2.344	1123
2.352	1209
2.36	1322
2.368	1467
2.376	1641
2.384	1832
2.392	2029
2.4	2226
2.408	2409
2.416	2575
2.424	2720
2.432	2835
2.44	2915
2.448	2966
2.456	2992
2.464	2990
2.472	2964
2.48	2922
2.488	2868
2.496	2801
2.504	2724
2.512	2639
2.52	2550
2.528	2455
2.536	2353
2.544	2246
2.552	2138
2.56	2028
2.568	1917
2.576	1810
2.584	1707
2.592	1611
2.6	1526
2.608	1451
2.616	1388
2.624	1338
2.632	1302
2.64	1279
2.648	1268
2.656	1267
2.664	1275
2.672	1290
2.68	1310
2.688	1333
2.696	1357
2.704	1381
2.712	1403
2.72	1421
2.728	1435
2.736	1444
2.744	1448
2.752	1449
2.76	1446
2.768	1439
2.776	1430
2.784	1418
2.792	1403
2.8	1387
2.808	1371
2.816	1353
2.824	1334
2.832	1314
2.84	1295
2.848	1278
2.856	1261
2.864	1246
2.872	1231
2.88	1217
2.888	1204
2.896	1191
2.904	1179
2.912	1168
2.92	1158
2.928	1149
2.936	1141
2.944	1133
2.952	1124
2.96	1114
2.968	1105
2.976	1098
2.984	1090
2.992	1082
3	1075
3.008	1068
3.016	1060
3.024	1053
3.032	1046
3.04	1037
3.048	1028
3.056	1020
3.064	1018
3.072	1026
3.08	1055
3.088	1107
3.096	1183
3.104	1293
3.112	1438
3.12	1608
3.128	1796
3.136	1995
3.144	2191
3.152	2379
3.16	2552
3.168	2698
3.176	2811
3.184	2896
3.192	2955
3.2	2984
3.208	2983
3.216	2962
3.224	2924
3.232	2869
3.24	2802
3.248	2726
3.256	2644
3.264	2555.99999999999
3.272	2461.99999999999
3.28	2361.99999999999
3.288	2257.99999999999
3.296	2149.99999999999
3.304	2038.99999999999
3.312	1927.99999999999
3.32	1817.99999999999
3.328	1713.99999999999
3.336	1619
3.344	1533
3.352	1455
3.36	1389
3.368	1338
3.376	1299
3.384	1271
3.392	1255
3.4	1252
3.408	1258
3.416	1271
3.424	1291
3.432	1314
3.44	1336
3.448	1358
3.456	1379
3.464	1396
3.472	1409
3.48	1420
3.488	1427
3.496	1431
3.504	1430
3.512	1425
3.52	1417
3.528	1405
3.536	1391
3.544	1376
3.552	1360
3.56	1343
3.568	1325
3.576	1306
3.584	1286
3.592	1267
3.6	1250
3.608	1233
3.616	1218
3.624	1204
3.632	1190
3.64	1177
3.648	1166
3.656	1154
3.664	1143
3.672	1134
3.68	1125
3.688	1117
3.696	1109
3.704	1101
3.712	1093
3.72	1085
3.728	1077
3.736	1069
3.744	1061
3.752	1053
3.76	1045
3.768	1037
3.776	1028
3.784	1018
3.792	1010
3.8	1003
3.808	1000
3.816	1008
3.824	1028
3.832	1066
3.84	1134
3.848	1239
3.856	1374
3.864	1531
3.872	1713
3.88	1908
3.888	2106
3.896	2298
3.904	2474
3.912	2622
3.92	2743
3.928	2841
3.936	2907
3.944	2939
3.952	2946
3.96	2933
3.968	2900
3.976	2849
3.984	2786
3.992	2715
4	2637
4.008	2551
4.016	2460
4.024	2365
4.032	2266
4.04	2160
4.048	2051
4.056	1943
4.064	1836
4.072	1732
4.08	1634
4.088	1544
4.096	1464
4.104	1397
4.112	1342
4.12	1297
4.128	1266
4.136	1248
4.144	1241
4.152	1243
4.16	1253
4.168	1269
4.176	1291
4.184	1315
4.192	1338
4.2	1359
4.208	1378
4.216	1393
4.224	1405
4.232	1412
4.24	1414
4.248	1414
4.256	1411
4.264	1404
4.272	1393
4.28	1381
4.288	1366
4.296	1348
4.304	1330
4.312	1312
4.32	1293
4.328	1275
4.336	1258
4.344	1242
4.352	1227
4.36	1211
4.368	1196
4.376	1183
4.384	1171
4.392	1160
4.4	1149
4.408	1140
4.416	1131
4.424	1122
4.432	1113
4.44	1105
4.448	1097
4.456	1088
4.464	1078
4.472	1069
4.48	1061
4.488	1053
4.496	1046
4.504	1038
4.512	1030
4.52	1023
4.528	1015
4.536	1006
4.544	997
4.552	994
4.56	999.000000000001
4.568	1016
4.576	1054.00000000001
4.584	1125.00000000001
4.592	1224.00000000001
4.6	1348.00000000002
4.608	1503.00000000002
4.616	1683
4.624	1877
4.632	2074
4.64	2264
4.648	2435
4.656	2587
4.664	2716
4.672	2813
4.68	2877
4.688	2913
4.696	2926
4.704	2914
4.712	2881
4.72	2833
4.728	2775
4.736	2707
4.744	2629
4.752	2545
4.76	2456
4.768	2362
4.776	2263
4.784	2160
4.792	2055
4.8	1949
4.808	1844
4.816	1742
4.824	1644
4.832	1553
4.84	1474
4.848	1405
4.856	1347
4.864	1302
4.872	1270
4.88	1249
4.888	1239
4.896	1240
4.904	1249
4.912	1265
4.92	1286
4.928	1308
4.936	1330
4.944	1352
4.952	1372
4.96	1389
4.968	1402
4.976	1409
4.984	1413
4.992	1414
5	1410
5.008	1403
5.016	1394
5.024	1382
5.032	1368
5.04	1352
5.048	1336
5.056	1319
5.064	1302
5.072	1285
5.08	1269
5.088	1253
5.096	1237
5.104	1222
5.112	1207
5.12	1193
5.128	1180
5.136	1168
5.144	1157
5.152	1147
5.16	1138
5.168	1128
5.176	1119
5.184	1112
5.192	1104
5.2	1095
5.208	1086
5.216	1078
5.224	1071
5.232	1064
5.24	1056
5.248	1048
5.256	1040
5.264	1033
5.272	1026
5.28	1016
5.288	1007
5.296	1001
5.304	1000
5.312	1010
5.32	1044
5.328	1102
5.336	1185
5.344	1302
5.352	1451
5.36	1625
5.368	1812
5.376	2005
5.384	2194
5.392	2372
5.4	2533
5.408	2668
5.416	2769
5.424	2842
5.432	2890
5.44	2909
5.448	2901
5.456	2874
5.464	2833
5.472	2779
5.48	2713
5.488	2639
5.496	2560
5.504	2473.99999999999
5.512	2380.99999999999
5.52	2284.99999999999
5.528	2186.99999999999
5.536	2085.99999999999
5.544	1981.99999999999
5.552	1876.99999999999
5.56	1774.99999999999
5.568	1677.99999999999
5.576	1588.99999999999
5.584	1508.99999999999
5.592	1437.99999999999
5.6	1378.99999999999
5.608	1334
5.616	1299
5.624	1274
5.632	1260
5.64	1258
5.648	1265
5.656	1279
5.664	1297
5.672	1317
5.68	1339
5.688	1361
5.696	1381
5.704	1397
5.712	1410
5.72	1420
5.728	1426
5.736	1428
5.744	1426
5.752	1420
5.76	1412
5.768	1402
5.776	1390
5.784	1377
5.792	1364
5.8	1350
5.808	1335
5.816	1320
5.824	1304
5.832	1288
5.84	1272
5.848	1257
5.856	1243
5.864	1229
5.872	1217
5.88	1207
5.888	1197
5.896	1186
5.904	1175
5.912	1166
5.92	1156
5.928	1147
5.936	1140
5.944	1131
5.952	1122
5.96	1113
5.968	1105
5.976	1097
5.984	1085
5.992	1077
6	1070
6.008	1056
6.016	1045
6.024	1036
6.032	1029
6.04	1034
6.048	1055
6.056	1093
6.064	1252
6.072	1381
6.08	1535
6.088	1900
6.096	2094
6.104	2284
6.112	2544
6.12	2681
6.128	2792
6.136	2877
6.144	2931
6.152	2954
6.16	2952
6.168	2932
6.176	2894
6.184	2840
6.192	2776
6.2	2705
6.208	2628
6.216	2545
6.224	2458
6.232	2366
6.24	2269
6.248	2168
6.256	2064
6.264	1960
6.272	1857
6.28	1759
6.288	1667
6.296	1582
6.304	1506
6.312	1442
6.32	1389
6.328	1347
6.336	1318
6.344	1303
6.352	1299
6.36	1301
6.368	1310
6.376	1325
6.384	1346
6.392	1369
6.4	1392
6.408	1411
6.416	1428
6.424	1442
6.432	1452
6.44	1458
6.448	1461
6.456	1461
6.464	1456
6.472	1447
6.48	1436
6.488	1423
6.496	1409
6.504	1393
6.512	1377
6.52	1361
6.528	1345
6.536	1328
6.544	1310
6.552	1293
6.56	1277
6.568	1262
6.576	1248
6.584	1236
6.592	1225
6.6	1215
6.608	1206
6.616	1197
6.624	1188
6.632	1178
6.64	1169
6.648	1161
6.656	1153
6.664	1144
6.672	1133
6.68	1124
6.688	1116
6.696	1108
6.704	1100
6.712	1093
6.72	1086
6.728	1076
6.736	1066
6.744	1056
6.752	1046
6.76	1043
6.768	1049
6.776	1066
6.784	1105
6.792	1176
6.8	1273
6.808	1396
6.816	1549
6.824	1726
6.832	1915
6.84	2107
6.848	2292
6.856	2458
6.864	2605
6.872	2731
6.88	2826
6.888	2887
6.896	2922
6.904	2934
6.912	2921
6.92	2887
6.928	2839
6.936	2781
6.944	2714
6.952	2638
6.96	2555
6.968	2469
6.976	2379
6.984	2282
6.992	2180
7	2079
7.008	1977
7.016	1874
7.024	1774
7.032	1679
7.04	1593
7.048	1518
7.056	1451
7.064	1395
7.072	1352
7.08	1322
7.088	1303
7.096	1294
7.104	1294
7.112	1303
7.12	1320
7.128	1340
7.136	1362
7.144	1384
7.152	1405
7.16	1424
7.168	1439
7.176	1451
7.184	1458
7.192	1461
7.2	1461
7.208	1456
7.216	1448
7.224	1439
7.232	1428
7.24	1414
7.248	1399
7.256	1384
7.264	1368
7.272	1350
7.28	1332
7.288	1315
7.296	1298
7.304	1280
7.312	1263
7.32	1249
7.328	1234
7.336	1219
7.344	1207
7.352	1196
7.36	1186
7.368	1177
7.376	1168
7.384	1159
7.392	1152
7.4	1144
7.408	1137
7.416	1131
7.424	1124
7.432	1117
7.44	1111
7.448	1104
7.456	1097
7.464	1090
7.472	1080
7.48	1070
7.488	1060
7.496	1051
7.504	1044
7.512	1042
7.52	1053
7.528	1086
7.536	1140.00000000001
7.544	1218.00000000001
7.552	1330.00000000001
7.56	1474.00000000002
7.568	1640.00000000002
7.576	1820.00000000002
7.584	2008.00000000002
7.592	2191.00000000002
7.6	2365.00000000002
7.608	2524.00000000002
7.616	2657.00000000001
7.624	2759.00000000001
7.632	2833.00000000001
7.64	2882
7.648	2901
7.656	2894
7.664	2868
7.672	2828.99999999999
7.68	2777
7.688	2713
7.696	2641
7.704	2564
7.712	2482
7.72	2393
7.728	2299
7.736	2202
7.744	2101
7.752	2000
7.76	1898
7.768	1797
7.776	1701
7.784	1613
7.792	1533
7.8	1462
7.808	1403
7.816	1359
7.824	1327
7.832	1304
7.84	1292
7.848	1291
7.856	1297
7.864	1308
7.872	1324
7.88	1344
7.888	1365
7.896	1387
7.904	1408
7.912	1424
7.92	1437
7.928	1449
7.936	1456
7.944	1456
7.952	1453
7.96	1448
7.968	1438
7.976	1426
7.984	1413
7.992	1399
8	1384
8.008	1368
8.016	1353
8.024	1338
8.032	1321
8.04	1305
8.048	1289
8.056	1274
8.064	1259
8.072	1244
8.08	1230
8.088	1219
8.096	1209
8.104	1199
8.112	1190
8.12	1181
8.128	1173
8.136	1164
8.144	1154
8.152	1146
8.16	1139
8.168	1132
8.176	1125
8.184	1119
8.192	1111
8.2	1103
8.208	1096
8.216	1089
8.224	1082
8.232	1072
8.24	1062
8.248	1054
8.256	1050
8.264	1059
8.272	1084
8.28	1126
8.288	1196
8.296	1300
8.304	1432
8.312	1587
8.32	1764
8.328	1951
8.336	2141
8.344	2323
8.352	2488
8.36	2627
8.368	2743
8.376	2835
8.384	2895
8.392	2923
8.4	2928
8.408	2914
8.416	2881
8.424	2832
8.432	2769
8.44	2699
8.448	2623
8.456	2539
8.464	2449
8.472	2356
8.48	2258
8.488	2156
8.496	2052
8.504	1948
8.512	1847
8.52	1751
8.528	1660
8.536	1576
8.544	1502
8.552	1440
8.56	1389
8.568	1350
8.576	1322
8.584	1307
8.592	1303
8.6	1306
8.608	1316
8.616	1332
8.624	1353
8.632	1376
8.64	1398
8.648	1419
8.656	1438
8.664	1453
8.672	1464
8.68	1469
8.688	1471
8.696	1471
8.704	1468
8.712	1461
8.72	1452
8.728	1440
8.736	1426
8.744	1411
8.752	1396
8.76	1380
8.768	1363
8.776	1346
8.784	1329
8.792	1313
8.8	1297
8.808	1282
8.816	1268
8.824	1255
8.832	1244
8.84	1234
8.848	1224
8.856	1214
8.864	1204
8.872	1194
8.88	1185
8.888	1177
8.896	1169
8.904	1161
8.912	1153
8.92	1145
8.928	1138
8.936	1130
8.944	1122
8.952	1116
8.96	1109
8.968	1100
8.976	1089
8.984	1079
8.992	1071
9	1069
9.008	1074
9.016	1090
9.024	1128.00000000001
9.032	1198
9.04	1296.00000000002
9.048	1419
9.056	1572.00000000004
9.064	1748
9.072	1938.00000000004
9.08	2131
9.088	2319.00000000004
9.096	2488
9.104	2637.00000000003
9.112	2766
9.12	2865.00000000002
9.128	2931
9.136	2968
9.144	2982
9.152	2971
9.16	2939
9.168	2891.99999999999
9.176	2833
9.184	2762.99999999998
9.192	2683
9.2	2598.99999999998
9.208	2511
9.216	2415.99999999998
9.224	2316
9.232	2214
9.24	2110
9.248	2004
9.256	1898
9.264	1795
9.272	1699
9.28	1612
9.288	1535
9.296	1468
9.304	1411
9.312	1368
9.32	1338
9.328	1319
9.336	1310
9.344	1312
9.352	1323
9.36	1340
9.368	1360
9.376	1382
9.384	1405
9.392	1428
9.4	1448
9.408	1465
9.416	1478
9.424	1486
9.432	1491
9.44	1493
9.448	1490
9.456	1482
9.464	1471
9.472	1459
9.48	1446
9.488	1430
9.496	1414
9.504	1398
9.512	1380
9.52	1362
9.528	1345
9.536	1329
9.544	1313
9.552	1297
9.56	1283
9.568	1270
9.576	1256
9.584	1244
9.592	1234
9.6	1224
9.608	1214
9.616	1205
9.624	1197
9.632	1189
9.64	1181
9.648	1173
9.656	1165
9.664	1158
9.672	1151
9.68	1144
9.688	1136
9.696	1128
9.704	1119
9.712	1111
9.72	1103
9.728	1094
9.736	1085
9.744	1078
9.752	1077
9.76	1090
9.768	1125
9.776	1184
9.784	1268
9.792	1385
9.8	1536
9.808	1710
9.816	1897
9.824	2093
9.832	2285
9.84	2467
9.848	2633
9.856	2773
9.864	2879
9.872	2956
9.88	3006
9.888	3027
9.896	3022
9.904	2995
9.912	2953
9.92	2898
9.928	2831
9.936	2755
9.944	2672
9.952	2583
9.96	2489
9.968	2391
9.976	2290
9.984	2184
9.992	2077
10	1971
10.008	1867.99999999998
10.016	1768
10.024	1674.99999999998
10.032	1591
10.04	1514.99999999998
10.048	1451
10.056	1401.99999999999
10.064	1365
10.072	1340
10.08	1327
10.088	1327
10.096	1335
10.104	1348
10.112	1366
10.12	1388.00000000001
10.128	1413
10.136	1438.00000000001
10.144	1459
10.152	1477
10.16	1491
10.168	1501
10.176	1507
10.184	1508
10.192	1505
10.2	1501
10.208	1493
10.216	1481
10.224	1467
10.232	1452
10.24	1435
10.248	1417
10.256	1399
10.264	1381
10.272	1363
10.28	1345
10.288	1327
10.296	1311
10.304	1297
10.312	1283
10.32	1269
10.328	1256
10.336	1244
10.344	1233
10.352	1223
10.36	1215
10.368	1207
10.376	1198
10.384	1189
10.392	1181
10.4	1172
10.408	1161
10.416	1152
10.424	1144
10.432	1136
10.44	1129
10.448	1123
10.456	1115
10.464	1105
10.472	1095
10.48	1086
10.488	1078
10.496	1075
10.504	1086
10.512	1112
10.52	1157
10.528	1232
10.536	1343
10.544	1484
10.552	1648
10.56	1835
10.568	2034
10.576	2235
10.584	2428
10.592	2602
10.6	2749
10.608	2870
10.616	2964
10.624	3025
10.632	3053
10.64	3056
10.648	3038
10.656	3000
10.664	2945
10.672	2879
10.68	2807
10.688	2727
10.696	2639
10.704	2546
10.712	2449
10.72	2347
10.728	2240
10.736	2131
10.744	2023
10.752	1916
10.76	1812
10.768	1714
10.776	1624
10.784	1545
10.792	1480
10.8	1426
10.808	1383
10.816	1353
10.824	1336
10.832	1330
10.84	1333
10.848	1344
10.856	1360
10.864	1380
10.872	1402
10.88	1425
10.888	1448
10.896	1468
10.904	1484
10.912	1497
10.92	1506
10.928	1508
10.936	1507
10.944	1504
10.952	1496
10.96	1485
10.968	1473
10.976	1458
10.984	1441
10.992	1424
11	1404
11.008	1385
11.016	1368
11.024	1350
11.032	1333
11.04	1317
11.048	1301
11.056	1286
11.064	1273
11.072	1262
11.08	1250
11.088	1238
11.096	1226
11.104	1216
11.112	1207
11.12	1198
11.128	1188
11.136	1179
11.144	1172
11.152	1163
11.16	1155
11.168	1148
11.176	1140
11.184	1132
11.192	1124
11.2	1115
11.208	1105
11.216	1095
11.224	1085
11.232	1076
11.24	1071
11.248	1073
11.256	1087
11.264	1121
11.272	1186
11.28	1279
11.288	1398
11.296	1549
11.304	1729
11.312	1925
11.32	2127
11.328	2327
11.336	2511
11.344	2676
11.352	2818
11.36	2929
11.368	3005
11.376	3051
11.384	3073
11.392	3069
11.4	3039
11.408	2991
11.416	2933
11.424	2864
11.432	2785
11.44	2700
11.448	2610
11.456	2514
11.464	2412
11.472	2307
11.48	2200
11.488	2090
11.496	1980
11.504	1872
11.512	1769
11.52	1675
11.528	1591
11.536	1516
11.544	1451
11.552	1400
11.56	1363
11.568	1339
11.576	1325
11.584	1323
11.592	1331
11.6	1345
11.608	1363
11.616	1385
11.624	1408
11.632	1429
11.64	1450
11.648	1468
11.656	1481
11.664	1491
11.672	1498
11.68	1499
11.688	1496
11.696	1490
11.704	1482
11.712	1472
11.72	1460
11.728	1445
11.736	1429
11.744	1412
11.752	1394
11.76	1376
11.768	1358
11.776	1341
11.784	1326
11.792	1311
11.8	1297
11.808	1284
11.816	1272
11.824	1262
11.832	1252
11.84	1241
11.848	1230
11.856	1219
11.864	1210
11.872	1201
11.88	1192
11.888	1182
11.896	1173
11.904	1165
11.912	1156
11.92	1147
11.928	1140
11.936	1132
11.944	1124
11.952	1115
11.96	1105
11.968	1094
11.976	1083
11.984	1075
11.992	1072
12	1079
12.008	1108.00000000001
12.016	1158
12.024	1233.00000000002
12.032	1343
12.04	1488.00000000004
12.048	1660
12.056	1850.00000000004
12.064	2053
12.072	2257.00000000004
12.08	2454
12.088	2635.00000000004
12.096	2790
12.104	2911.00000000002
12.112	3003
12.12	3068.00000000001
12.128	3100
12.136	3100
12.144	3077
12.152	3038.99999999999
12.16	2985
12.168	2916.99999999998
12.176	2840
12.184	2757.99999999998
12.192	2670
12.2	2573.99999999998
12.208	2474
12.216	2371.99999999998
12.224	2267
12.232	2158.99999999998
12.24	2049
12.248	1939.99999999998
12.256	1834
12.264	1735.99999999998
12.272	1645
12.28	1562.99999999998
12.288	1494
12.296	1438
12.304	1394
12.312	1362
12.32	1342
12.328	1335
12.336	1339
12.344	1349
12.352	1365
12.36	1385
12.368	1407
12.376	1430
12.384	1451
12.392	1469
12.4	1484
12.408	1496
12.416	1504
12.424	1507
12.432	1507
12.44	1503
12.448	1495
12.456	1484
12.464	1470
12.472	1455
12.48	1439
12.488	1422
12.496	1404
12.504	1386
12.512	1368
12.52	1348
12.528	1328
12.536	1310
12.544	1293
12.552	1278
12.56	1265
12.568	1254
12.576	1242
12.584	1230
12.592	1218
12.6	1207
12.608	1198
12.616	1188
12.624	1178
12.632	1169
12.64	1161
12.648	1152
12.656	1142
12.664	1133
12.672	1126
12.68	1119
12.688	1112
12.696	1104
12.704	1096
12.712	1087
12.72	1078
12.728	1069
12.736	1063
12.744	1067
12.752	1083
12.76	1115
12.768	1175
12.776	1272
12.784	1399
12.792	1552
12.8	1732
12.808	1930
12.816	2135
12.824	2338
12.832	2527
12.84	2691
12.848	2830
12.856	2943
12.864	3024
12.872	3068
12.88	3083
12.888	3077
12.896	3048
12.904	2999
12.912	2937
12.92	2866
12.928	2786
12.936	2698
12.944	2605
12.952	2509
12.96	2407
12.968	2300
12.976	2190
12.984	2079
12.992	1968
13	1858
13.008	1752.99999999998
13.016	1656
13.024	1567.99999999998
13.032	1492
13.04	1426.99999999999
13.048	1375
13.056	1336.99999999999
13.064	1313
13.072	1301
13.08	1298
13.088	1305
13.096	1322
13.104	1344.00000000001
13.112	1369
13.12	1395.00000000001
13.128	1419
13.136	1441
13.144	1460
13.152	1474
13.16	1483
13.168	1489
13.176	1492
13.184	1491
13.192	1487
13.2	1479
13.208	1467
13.216	1453
13.224	1437
13.232	1419
13.24	1401
13.248	1381
13.256	1360
13.264	1340
13.272	1321
13.28	1303
13.288	1286
13.296	1269
13.304	1254
13.312	1240
13.32	1227
13.328	1215
13.336	1203
13.344	1191
13.352	1179
13.36	1167
13.368	1155
13.376	1144
13.384	1134
13.392	1125
13.4	1117
13.408	1110
13.416	1104
13.424	1099
13.432	1095
13.44	1089
13.448	1082
13.456	1075
13.464	1067
13.472	1058
13.48	1052
13.488	1050
13.496	1055
13.504	1077
13.512	1126
13.52	1200
13.528	1301
13.536	1439
13.544	1609
13.552	1799
13.56	1999
13.568	2202
13.576	2394
13.584	2571
13.592	2728
13.6	2854
13.608	2945
13.616	3007
13.624	3043
13.632	3050
13.64	3029
13.648	2989
13.656	2935
13.664	2867
13.672	2788
13.68	2702
13.688	2612
13.696	2516
13.704	2414
13.712	2307
13.72	2198
13.728	2086
13.736	1973
13.744	1862
13.752	1754
13.76	1653
13.768	1563
13.776	1483
13.784	1412
13.792	1353
13.8	1311
13.808	1282
13.816	1263
13.824	1257
13.832	1263
13.84	1278
13.848	1297
13.856	1320
13.864	1345
13.872	1372
13.88	1397
13.888	1419
13.896	1437
13.904	1451
13.912	1461
13.92	1466
13.928	1465
13.936	1462
13.944	1456
13.952	1447
13.96	1436
13.968	1421
13.976	1405
13.984	1388
13.992	1369
14	1350
14.008	1331
14.016	1313
14.024	1295
14.032	1278
14.04	1261
14.048	1245
14.056	1230
14.064	1216
14.072	1203
14.08	1192
14.088	1182
14.096	1172
14.104	1162
14.112	1153
14.12	1145
14.128	1137
14.136	1129
14.144	1121
14.152	1113
14.16	1105
14.168	1098
14.176	1091
14.184	1085
14.192	1079
14.2	1072
14.208	1064
14.216	1054
14.224	1043
14.232	1037
14.24	1038
14.248	1054
14.256	1088
14.264	1143.00000000002
14.272	1231
14.28	1357.00000000003
14.288	1512
14.296	1686.00000000004
14.304	1880
14.312	2083.00000000005
14.32	2285
14.328	2476.00000000004
14.336	2645
14.344	2784
14.352	2894
14.36	2977
14.368	3027
14.376	3044
14.384	3036
14.392	3009
14.4	2963
14.408	2901
14.416	2829
14.424	2749
14.432	2660
14.44	2563
14.448	2463
14.456	2360
14.464	2251
14.472	2138
14.48	2023
14.488	1910
14.496	1800
14.504	1697
14.512	1601
14.52	1513
14.528	1437
14.536	1375
14.544	1326
14.552	1289
14.56	1266
14.568	1257
14.576	1259
14.584	1269
14.592	1287
14.6	1310
14.608	1336
14.616	1362
14.624	1387
14.632	1411
14.64	1432
14.648	1448
14.656	1460
14.664	1468
14.672	1471
14.68	1471
14.688	1467
14.696	1458
14.704	1445
14.712	1431
14.72	1416
14.728	1399
14.736	1381
14.744	1363
14.752	1345
14.76	1326
14.768	1307
14.776	1290
14.784	1273
14.792	1258
14.8	1243
14.808	1230
14.816	1218
14.824	1205
14.832	1193
14.84	1182
14.848	1171
14.856	1163
14.864	1155
14.872	1146
14.88	1138
14.888	1130
14.896	1121
14.904	1113
14.912	1105
14.92	1098
14.928	1092
14.936	1087
14.944	1082
14.952	1074
14.96	1064
14.968	1055
14.976	1048
14.984	1045
14.992	1051
15	1070
15.008	1112.00000000001
15.016	1188
15.024	1293.00000000003
15.032	1425
15.04	1589.00000000004
15.048	1778
15.056	1981.00000000005
15.064	2187
15.072	2386.00000000004
15.08	2566
15.088	2725.00000000003
15.096	2861
15.104	2963.00000000002
15.112	3028
15.12	3064
15.128	3076
15.136	3060.99999999999
15.144	3023
15.152	2968.99999999999
15.16	2904
15.168	2827.99999999998
15.176	2743
15.184	2652.99999999998
15.192	2558
15.2	2454.99999999998
15.208	2347
15.216	2236.99999999998
15.224	2125
15.232	2010.99999999997
15.24	1899
15.248	1789.99999999998
15.256	1686
15.264	1590.99999999998
15.272	1508
15.28	1435.99999999999
15.288	1375
15.296	1327.99999999999
15.304	1297
15.312	1279
15.32	1270
15.328	1273
15.336	1287
15.344	1306
15.352	1328
15.36	1354
15.368	1380
15.376	1404
15.384	1427
15.392	1447
15.4	1461
15.408	1471
15.416	1479
15.424	1482
15.432	1478
15.44	1471
15.448	1463
15.456	1451
15.464	1436
15.472	1420
15.48	1404
15.488	1387
15.496	1368
15.504	1348
15.512	1329
15.52	1310
15.528	1291
15.536	1274
15.544	1257
15.552	1243
15.56	1230
15.568	1217
15.576	1207
15.584	1197
15.592	1186
15.6	1175
15.608	1166
15.616	1157
15.624	1149
15.632	1142
15.64	1134
15.648	1125
15.656	1117
15.664	1110
15.672	1103
15.68	1097
15.688	1090
15.696	1081
15.704	1074
15.712	1067
15.72	1060
15.728	1053
15.736	1052
15.744	1061
15.752	1093
15.76	1149
15.768	1230
15.776	1345
15.784	1497
15.792	1676
15.8	1870
15.808	2075
15.816	2279
15.824	2474
15.832	2653
15.84	2805
15.848	2922
15.856	3009
15.864	3069
15.872	3097
15.88	3095
15.888	3071
15.896	3030
15.904	2972
15.912	2901
15.92	2821
15.928	2735
15.936	2642
15.944	2540
15.952	2434
15.96	2326
15.968	2214
15.976	2100
15.984	1985
15.992	1872
16	1762
16.008	1660
16.016	1566.99999999996
16.024	1484
16.032	1414
16.04	1360
16.048	1318.99999999999
16.056	1291
16.064	1276
16.072	1272
16.08	1278
16.088	1292
16.096	1313
16.104	1338
16.112	1364.00000000001
16.12	1391
16.128	1418
16.136	1440
16.144	1457.00000000001
16.152	1471
16.16	1481
16.168	1486
16.176	1486
16.184	1482
16.192	1474
16.2	1463
16.208	1449.99999999999
16.216	1435
16.224	1419
16.232	1401
16.24	1381.99999999999
16.248	1362
16.256	1332
16.264	1314
16.272	1296.99999999999
16.28	1263
16.288	1248
16.296	1233
16.304	1209.99999999999
16.312	1200
16.32	1190
16.328	1168
16.336	1158
16.344	1149
16.352	1137
16.36	1130
16.368	1123
16.376	1116
16.384	1109
16.392	1102
16.4	1094
16.408	1087
16.416	1080
16.424	1071
16.432	1063
16.44	1055
16.448	1048
16.456	1051
16.464	1067
16.472	1098
16.48	1155
16.488	1250
16.496	1376
16.504	1529
16.512	1711
16.52	1911
16.528	2120
16.536	2327
16.544	2521
16.552	2689
16.56	2833
16.568	2951
16.576	3035
16.584	3084
16.592	3104
16.6	3102
16.608	3076
16.616	3028
16.624	2967
16.632	2897
16.64	2816
16.648	2726
16.656	2631
16.664	2532
16.672	2426
16.68	2316
16.688	2203
16.696	2090
16.704	1977
16.712	1866
16.72	1758
16.728	1657
16.736	1567
16.744	1489
16.752	1422
16.76	1366
16.768	1325
16.776	1301
16.784	1288
16.792	1284
16.8	1290
16.808	1305
16.816	1327
16.824	1351
16.832	1377
16.84	1402
16.848	1425
16.856	1447
16.864	1465
16.872	1478
16.88	1486
16.888	1490
16.896	1490
16.904	1485
16.912	1477
16.92	1467
16.928	1454
16.936	1438
16.944	1420
16.952	1401
16.96	1382
16.968	1361
16.976	1341
16.984	1323
16.992	1306
17	1289
17.008	1273
17.016	1257.99999999999
17.024	1243
17.032	1229
17.04	1216
17.048	1204
17.056	1194
17.064	1184
17.072	1174
17.08	1165
17.088	1157
17.096	1148
17.104	1138
17.112	1129
17.12	1121
17.128	1113
17.136	1105
17.144	1098
17.152	1091
17.16	1084
17.168	1076
17.176	1068
17.184	1060
17.192	1053
17.2	1049
17.208	1052
17.216	1071
17.224	1118
17.232	1190
17.24	1289.00000000005
17.248	1424
17.256	1592
17.264	1783
17.272	1988.00000000009
17.28	2197
17.288	2397
17.296	2584
17.304	2751.00000000007
17.312	2888
17.32	2988
17.328	3058
17.336	3102.00000000001
17.344	3115
17.352	3100
17.36	3064
17.368	3013.99999999997
17.376	2950
17.384	2874
17.392	2790
17.4	2699.99999999996
17.408	2604
17.416	2501
17.424	2394
17.432	2283
17.44	2169
17.448	2054
17.456	1938
17.464	1826
17.472	1720
17.48	1623
17.488	1536
17.496	1458
17.504	1394
17.512	1345
17.52	1310
17.528	1287
17.536	1278
17.544	1280
17.552	1291
17.56	1309
17.568	1332
17.576	1357
17.584	1383
17.592	1408
17.6	1431
17.608	1451
17.616	1467
17.624	1478
17.632	1483
17.64	1484
17.648	1481
17.656	1477
17.664	1470
17.672	1458
17.68	1443
17.688	1427
17.696	1409
17.704	1390
17.712	1370
17.72	1350
17.728	1331
17.736	1314
17.744	1297
17.752	1281
17.76	1266
17.768	1252
17.776	1240
17.784	1229
17.792	1218
17.8	1206
17.808	1195
17.816	1186
17.824	1177
17.832	1169
17.84	1161
17.848	1153
17.856	1145
17.864	1137
17.872	1129
17.88	1121
17.888	1114
17.896	1107
17.904	1101
17.912	1094
17.92	1084
17.928	1074
17.936	1064
17.944	1056
17.952	1054
17.96	1067
17.968	1097
17.976	1147
17.984	1230
17.992	1351
18	1503
18.008	1678
18.016	1875.00000000009
18.024	2083
18.032	2291
18.04	2490
18.048	2669.00000000007
18.056	2818
18.064	2939
18.072	3034
18.08	3094.00000000002
18.088	3120
18.096	3120
18.104	3100
18.112	3057.99999999998
18.12	2998
18.128	2927
18.136	2849
18.144	2762.99999999996
18.152	2670
18.16	2571
18.168	2469
18.176	2362.99999999995
18.184	2251
18.192	2136
18.2	2021
18.208	1907.99999999995
18.216	1799
18.224	1696
18.232	1601
18.24	1517.99999999997
18.248	1447
18.256	1390
18.264	1344
18.272	1311.99999999999
18.28	1295
18.288	1290
18.296	1294
18.304	1307.00000000001
18.312	1327
18.32	1352
18.328	1378
18.336	1404.00000000001
18.344	1428
18.352	1449
18.36	1468
18.368	1482
18.376	1490
18.384	1494
18.392	1495
18.4	1491
18.408	1483
18.416	1473
18.424	1461
18.432	1445.99999999999
18.44	1428
18.448	1409
18.456	1390
18.464	1371
18.472	1353
18.48	1333
18.488	1313
18.496	1295
18.504	1277
18.512	1259
18.52	1243
18.528	1229
18.536	1216
18.544	1204
18.552	1194
18.56	1185
18.568	1176
18.576	1165
18.584	1155
18.592	1145
18.6	1135
18.608	1126
18.616	1117
18.624	1109
18.632	1101
18.64	1094
18.648	1088
18.656	1082
18.664	1074
18.672	1065
18.68	1056
18.688	1047
18.696	1045
18.704	1051
18.712	1071
18.72	1114
18.728	1190
18.736	1297
18.744	1431
18.752	1598
18.76	1790
18.768	1996
18.776	2206
18.784	2409
18.792	2592
18.8	2753
18.808	2890
18.816	2993
18.824	3060
18.832	3096
18.84	3108
18.848	3094
18.856	3057
18.864	3004
18.872	2940
18.88	2865
18.888	2780
18.896	2690
18.904	2597
18.912	2497
18.92	2390
18.928	2280
18.936	2167
18.944	2052
18.952	1938
18.96	1825
18.968	1718
18.976	1620
18.984	1533
18.992	1458
19	1394
19.008	1344
19.016	1309.99999999999
19.024	1288
19.032	1276
19.04	1276
19.048	1286.00000000001
19.056	1304
19.064	1327
19.072	1353
19.08	1379.00000000001
19.088	1404
19.096	1428
19.104	1449
19.112	1465.00000000001
19.12	1476
19.128	1482
19.136	1484
19.144	1481
19.152	1475
19.16	1467
19.168	1456
19.176	1440.99999999999
19.184	1425
19.192	1407
19.2	1387
19.208	1366.99999999999
19.216	1347
19.224	1326
19.232	1305
19.24	1286.99999999999
19.248	1270
19.256	1253
19.264	1238
19.272	1223.99999999999
19.28	1211
19.288	1198
19.296	1185
19.304	1173.99999999999
19.312	1162
19.32	1150
19.328	1138
19.336	1127
19.344	1117
19.352	1107
19.36	1098
19.368	1089
19.376	1081
19.384	1074
19.392	1068
19.4	1062
19.408	1056
19.416	1049
19.424	1041
19.432	1034
19.44	1029
19.448	1030
19.456	1043
19.464	1081
19.472	1143
19.48	1231
19.488	1354
19.496	1511
19.504	1693
19.512	1889
19.52	2094
19.528	2294
19.536	2482
19.544	2653
19.552	2798
19.56	2908
19.568	2989
19.576	3044
19.584	3067
19.592	3061
19.6	3033
19.608	2990
19.616	2931
19.624	2859
19.632	2778
19.64	2690
19.648	2595
19.656	2495
19.664	2390
19.672	2280
19.68	2167
19.688	2053
19.696	1940
19.704	1829
19.712	1723
19.72	1625
19.728	1536
19.736	1456
19.744	1389
19.752	1338
19.76	1299
19.768	1274
19.776	1261
19.784	1260
19.792	1269
19.8	1285
19.808	1306
19.816	1330
19.824	1355
19.832	1380
19.84	1403
19.848	1423
19.856	1440
19.864	1453
19.872	1461
19.88	1463
19.888	1461
19.896	1457
19.904	1450
19.912	1438
19.92	1424
19.928	1409
19.936	1393
19.944	1375
19.952	1356
19.96	1337
19.968	1319
19.976	1301
19.984	1283
19.992	1265
20	1247
20.008	1231
20.016	1216.99999999999
20.024	1204
20.032	1192
20.04	1181
20.048	1171
20.056	1162
20.064	1152
20.072	1141
20.08	1132
20.088	1124
20.096	1116
20.104	1108
20.112	1101
20.12	1095
20.128	1089
20.136	1082
20.144	1074
20.152	1067
20.16	1060
20.168	1051
20.176	1042
20.184	1034
20.192	1032
20.2	1045
20.208	1073.00000000002
20.216	1120
20.224	1197
20.232	1312
20.24	1457.00000000007
20.248	1625
20.256	1816
20.264	2017
20.272	2220.00000000009
20.28	2415
20.288	2593
20.296	2742
20.304	2863.00000000005
20.312	2959
20.32	3021
20.328	3049
20.336	3052
20.344	3036
20.352	3000
20.36	2945
20.368	2877.99999999997
20.376	2803
20.384	2720
20.392	2628
20.4	2531.99999999996
20.408	2431
20.416	2324
20.424	2213
20.432	2099.99999999995
20.44	1985
20.448	1872
20.456	1763
20.464	1660.99999999996
20.472	1567
20.48	1485
20.488	1417
20.496	1360
20.504	1315
20.512	1286
20.52	1270
20.528	1266
20.536	1272
20.544	1286
20.552	1307
20.56	1332
20.568	1358
20.576	1385
20.584	1410
20.592	1432
20.6	1450
20.608	1463
20.616	1472
20.624	1476
20.632	1476
20.64	1471
20.648	1462
20.656	1450
20.664	1437
20.672	1422
20.68	1404
20.688	1386
20.696	1369
20.704	1351
20.712	1332
20.72	1313
20.728	1295
20.736	1277
20.744	1259
20.752	1244
20.76	1230
20.768	1217
20.776	1205
20.784	1193
20.792	1183
20.8	1173
20.808	1163
20.816	1154
20.824	1145
20.832	1137
20.84	1128
20.848	1118
20.856	1110
20.864	1103
20.872	1096
20.88	1089
20.888	1084
20.896	1078
20.904	1070
20.912	1060
20.92	1050
20.928	1042
20.936	1042
20.944	1052
20.952	1077
20.96	1128
20.968	1212
20.976	1326
20.984	1466
20.992	1634
21	1824
21.008	2026
21.016	2228.00000000009
21.024	2422
21.032	2595
21.04	2745
21.048	2871.00000000005
21.056	2965
21.064	3024
21.072	3054
21.08	3061
21.088	3044
21.096	3004
21.104	2949
21.112	2882.99999999997
21.12	2806
21.128	2721
21.136	2631
21.144	2534.99999999996
21.152	2433
21.16	2326
21.168	2215
21.176	2102.99999999995
21.184	1989
21.192	1877
21.2	1770
21.208	1668.99999999996
21.216	1578
21.224	1497
21.232	1427
21.24	1369.99999999998
21.248	1328
21.256	1300
21.264	1283
21.272	1278
21.28	1283
21.288	1297
21.296	1318
21.304	1342.00000000001
21.312	1367
21.32	1391
21.328	1414
21.336	1434.00000000001
21.344	1450
21.352	1462
21.36	1470
21.368	1474
21.376	1474
21.384	1470
21.392	1462
21.4	1450.99999999999
21.408	1438
21.416	1422
21.424	1405
21.432	1387.99999999999
21.44	1369
21.448	1350
21.456	1330
21.464	1310.99999999999
21.472	1293
21.48	1275
21.488	1258
21.496	1241.99999999999
21.504	1227
21.512	1214
21.52	1203
21.528	1193
21.536	1182
21.544	1171
21.552	1161
21.56	1151
21.568	1141
21.576	1132
21.584	1124
21.592	1116
21.6	1108
21.608	1101
21.616	1095
21.624	1088
21.632	1080
21.64	1071
21.648	1062
21.656	1053
21.664	1045
21.672	1040
21.68	1040
21.688	1050
21.696	1080
21.704	1141
21.712	1230
21.72	1346
21.728	1495
21.736	1673
21.744	1869
21.752	2072
21.76	2274
21.768	2462
21.776	2633
21.784	2782
21.792	2899
21.8	2982
21.808	3034
21.816	3060
21.824	3059
21.832	3034
21.84	2990
21.848	2933
21.856	2865
21.864	2787
21.872	2701
21.88	2610
21.888	2512
21.896	2408
21.904	2300
21.912	2189
21.92	2076
21.928	1962
21.936	1850
21.944	1743
21.952	1643
21.96	1553
21.968	1474
21.976	1404
21.984	1348
21.992	1309
22	1284
22.008	1269
22.016	1267
22.024	1276
22.032	1291
22.04	1311
22.048	1335.00000000001
22.056	1360
22.064	1384
22.072	1407
22.08	1427.00000000001
22.088	1442
22.096	1454
22.104	1462
22.112	1464
22.12	1462
22.128	1456
22.136	1447
22.144	1435.99999999999
22.152	1422
22.16	1407
22.168	1391
22.176	1372.99999999999
22.184	1354
22.192	1335
22.2	1317
22.208	1297.99999999999
22.216	1279
22.224	1261
22.232	1244
22.24	1228.99999999999
22.248	1216
22.256	1204
22.264	1193
22.272	1183
22.28	1173
22.288	1163
22.296	1154
22.304	1144
22.312	1134
22.32	1125
22.328	1117
22.336	1108
22.344	1099
22.352	1092
22.36	1084
22.368	1077
22.376	1070
22.384	1061
22.392	1053
22.4	1045
22.408	1038
22.416	1034
22.424	1038
22.432	1057.00000000001
22.44	1103
22.448	1175
22.456	1274
22.464	1406.00000000007
22.472	1571
22.48	1760
22.488	1959
22.496	2163.00000000009
22.504	2358
22.512	2537
22.52	2697
22.528	2829
22.536	2927
22.544	2994
22.552	3035
22.56	3048
22.568	3032
22.576	2997
22.584	2950
22.592	2889
22.6	2816
22.608	2735
22.616	2649
22.624	2557
22.632	2458
22.64	2352
22.648	2243
22.656	2131
22.664	2017
22.672	1903
22.68	1792
22.688	1687
22.696	1593
22.704	1508
22.712	1432
22.72	1371
22.728	1326
22.736	1292
22.744	1270
22.752	1261
22.76	1264
22.768	1275
22.776	1292
22.784	1313
22.792	1337
22.8	1361
22.808	1384
22.816	1405
22.824	1423
22.832	1436
22.84	1445
22.848	1451
22.856	1451
22.864	1446
22.872	1438
22.88	1428
22.888	1415
22.896	1400
22.904	1383
22.912	1365
22.92	1346
22.928	1327
22.936	1310
22.944	1292
22.952	1274
22.96	1257
22.968	1242
22.976	1226
22.984	1210
22.992	1196
23	1184
23.008	1173
23.016	1162
23.024	1151
23.032	1142
23.04	1134
23.048	1126
23.056	1117
23.064	1109
23.072	1101
23.08	1093
23.088	1085
23.096	1078
23.104	1070
23.112	1061
23.12	1054
23.128	1046
23.136	1037
23.144	1029
23.152	1023
23.16	1023
23.168	1036
23.176	1074.00000000002
23.184	1136
23.192	1222
23.2	1342
23.208	1496.00000000007
23.216	1674
23.224	1867
23.232	2069
23.24	2267.00000000009
23.248	2455
23.256	2625
23.264	2768
23.272	2877.00000000004
23.28	2957
23.288	3010
23.296	3033
23.304	3029
23.312	3004
23.32	2963
23.328	2907
23.336	2836.99999999997
23.344	2759
23.352	2676
23.36	2585
23.368	2487.99999999996
23.376	2386
23.384	2281
23.392	2172
23.4	2058.99999999995
23.408	1947
23.416	1837
23.424	1731
23.432	1632.99999999996
23.44	1543
23.448	1464
23.456	1398
23.464	1345.99999999998
23.472	1307
23.48	1281
23.488	1267
23.496	1264
23.504	1270
23.512	1283
23.52	1302
23.528	1324.00000000001
23.536	1347
23.544	1370
23.552	1392
23.56	1411
23.568	1426
23.576	1436
23.584	1442
23.592	1443
23.6	1441
23.608	1436
23.616	1426
23.624	1413
23.632	1399
23.64	1384
23.648	1367
23.656	1349
23.664	1331
23.672	1313
23.68	1295
23.688	1278
23.696	1261
23.704	1245
23.712	1230
23.72	1215
23.728	1202
23.736	1191
23.744	1181
23.752	1171
23.76	1162
23.768	1153
23.776	1145
23.784	1137
23.792	1128
23.8	1119
23.808	1112
23.816	1104
23.824	1097
23.832	1092
23.84	1085
23.848	1077
23.856	1070
23.864	1063
23.872	1055
23.88	1046
23.888	1038
23.896	1034
23.904	1040
23.912	1067
23.92	1115
23.928	1187
23.936	1293
23.944	1434
23.952	1602
23.96	1788
23.968	1987
23.976	2187
23.984	2380
23.992	2559
24	2715
24.008	2837
24.016	2929.00000000003
24.024	2996
24.032	3032
24.04	3037
24.048	3019.99999999999
24.056	2987
24.064	2938
24.072	2874
24.08	2799.99999999997
24.088	2719
24.096	2633
24.104	2540
24.112	2439.99999999995
24.12	2337
24.128	2230
24.136	2118
24.144	2005.99999999995
24.152	1895
24.16	1788
24.168	1688
24.176	1594.99999999996
24.184	1512
24.192	1441
24.2	1384
24.208	1338.99999999998
24.216	1307
24.224	1288
24.232	1281
24.24	1284
24.248	1293
24.256	1309
24.264	1330
24.272	1353.00000000001
24.28	1376
24.288	1397
24.296	1416
24.304	1432.00000000001
24.312	1446
24.32	1454
24.328	1456
24.336	1455
24.344	1452
24.352	1444
24.36	1432
24.368	1417.99999999999
24.376	1403
24.384	1387
24.392	1370
24.4	1352.99999999999
24.408	1336
24.416	1318
24.424	1300
24.432	1281.99999999999
24.44	1265
24.448	1250
24.456	1236
24.464	1221.99999999999
24.472	1208
24.48	1196
24.488	1185
24.496	1175
24.504	1166
24.512	1156
24.52	1145
24.528	1135
24.536	1126
24.544	1118
24.552	1111
24.56	1103
24.568	1095
24.576	1088
24.584	1080
24.592	1072
24.6	1064
24.608	1056
24.616	1047
24.624	1038
24.632	1032
24.64	1035
24.648	1057
24.656	1098
24.664	1161
24.672	1258
24.68	1390
24.688	1550
24.696	1731
24.704	1930
24.712	2132
24.72	2329
24.728	2515
24.736	2678
24.744	2808
24.752	2910
24.76	2985
24.768	3029
24.776	3042
24.784	3029
24.792	2999
24.8	2952
24.808	2890
24.816	2819
24.824	2741
24.832	2656
24.84	2564
24.848	2466
24.856	2364
24.864	2257
24.872	2146
24.88	2034
24.888	1924
24.896	1816
24.904	1713
24.912	1617
24.92	1530
24.928	1454
24.936	1392
24.944	1343
24.952	1306
24.96	1282
24.968	1271
24.976	1271
24.984	1279
24.992	1295
25	1316
25.008	1339
25.016	1364.00000000001
25.024	1387
25.032	1407
25.04	1424
25.048	1437
25.056	1446
25.064	1450
25.072	1450
25.08	1447
25.088	1441
25.096	1431
25.104	1419
25.112	1404.99999999999
25.12	1390
25.128	1373
25.136	1355
25.144	1336.99999999999
25.152	1319
25.16	1301
25.168	1284
25.176	1267.99999999999
25.184	1252
25.192	1237
25.2	1224
25.208	1210.99999999999
25.216	1199
25.224	1188
25.232	1178
25.24	1168
25.248	1157
25.256	1147
25.264	1137
25.272	1127
25.28	1117
25.288	1107
25.296	1098
25.304	1089
25.312	1081
25.32	1072
25.328	1062
25.336	1052
25.344	1041
25.352	1030
25.36	1018
25.368	1009
25.376	1009
25.384	1026
25.392	1060
25.4	1116.00000000003
25.408	1205
25.416	1331
25.424	1486
25.432	1662.00000000008
25.44	1857
25.448	2059
25.456	2258
25.464	2445.00000000008
25.472	2612
25.48	2748
25.488	2855
25.496	2936.00000000003
25.504	2985
25.512	3003
25.52	2996
25.528	2970.99999999999
25.536	2929
25.544	2871
25.552	2802
25.56	2723.99999999996
25.568	2639
25.576	2548
25.584	2451
25.592	2350.99999999995
25.6	2246
25.608	2136
25.616	2024
25.624	1912
25.632	1803
25.64	1701
25.648	1605
25.656	1518
25.664	1442
25.672	1379
25.68	1329
25.688	1290
25.696	1264
25.704	1252
25.712	1250
25.72	1256
25.728	1271
25.736	1292
25.744	1315
25.752	1340
25.76	1364
25.768	1384
25.776	1400
25.784	1414
25.792	1423
25.8	1428
25.808	1429
25.816	1427
25.824	1421
25.832	1412
25.84	1400
25.848	1387
25.856	1373
25.864	1356
25.872	1338
25.88	1320
25.888	1301
25.896	1283
25.904	1266
25.912	1250
25.92	1235
25.928	1221
25.936	1208
25.944	1195
25.952	1184
25.96	1173
25.968	1163
25.976	1154
25.984	1145
25.992	1136
26	1127
26.008	1119
26.016	1110
26.024	1100
26.032	1091
26.04	1084
26.048	1076
26.056	1068
26.064	1060
26.072	1052
26.08	1044
26.088	1036
26.096	1028
26.104	1023
26.112	1024
26.12	1038
26.128	1068
26.136	1117
26.144	1197.00000000004
26.152	1313
26.16	1459
26.168	1628
26.176	1818.00000000009
26.184	2017
26.192	2216
26.2	2406
26.208	2577.00000000007
26.216	2719
26.224	2834
26.232	2923
26.24	2980.00000000002
26.248	3004
26.256	3004
26.264	2985
26.272	2945.99999999998
26.28	2889
26.288	2823
26.296	2749
26.304	2665.99999999996
26.312	2574
26.32	2476
26.328	2375
26.336	2269.99999999995
26.344	2160
26.352	2048
26.36	1936
26.368	1825.99999999995
26.376	1721
26.384	1623
26.392	1534
26.4	1455.99999999997
26.408	1392
26.416	1341
26.424	1302
26.432	1275.99999999999
26.44	1264
26.448	1262
26.456	1269
26.464	1285.00000000001
26.472	1305
26.48	1328
26.488	1351
26.496	1374.00000000001
26.504	1394
26.512	1412
26.52	1427
26.528	1437
26.536	1442
26.544	1443
26.552	1442
26.56	1431
26.568	1420
26.576	1407
26.584	1377
26.592	1360.99999999999
26.6	1344
26.608	1309
26.616	1293
26.624	1276.99999999999
26.632	1246
26.64	1232
26.648	1218
26.656	1200
26.664	1189
26.672	1179
26.68	1170
26.688	1160
26.696	1150
26.704	1141
26.712	1132
26.72	1123
26.728	1116
26.736	1107
26.744	1098
26.752	1090
26.76	1083
26.768	1076
26.776	1069
26.784	1062
26.792	1053
26.8	1045
26.808	1038
26.816	1037
26.824	1051
26.832	1079
26.84	1127
26.848	1206
26.856	1321
26.864	1466
26.872	1633
26.88	1822
26.888	2020
26.896	2220
26.904	2413
26.912	2587
26.92	2731
26.928	2849
26.936	2941
26.944	3000
26.952	3025
26.96	3026
26.968	3008
26.976	2970
26.984	2915
26.992	2848
27	2773
27.008	2692
27.016	2601.99999999996
27.024	2506
27.032	2405
27.04	2299
27.048	2188.99999999995
27.056	2078
27.064	1966
27.072	1854
27.08	1747.99999999995
27.088	1648
27.096	1555
27.104	1475
27.112	1408.99999999997
27.12	1356
27.128	1315
27.136	1288
27.144	1275
27.152	1274
27.16	1279
27.168	1292
27.176	1310.00000000001
27.184	1332
27.192	1357
27.2	1381
27.208	1400.00000000001
27.216	1417
27.224	1433
27.232	1444
27.24	1449
27.248	1451
27.256	1451
27.264	1447
27.272	1436.99999999999
27.28	1424
27.288	1410
27.296	1395
27.304	1378.99999999999
27.312	1361
27.32	1343
27.328	1326
27.336	1307.99999999999
27.344	1289
27.352	1272
27.36	1256
27.368	1239.99999999999
27.376	1226
27.384	1214
27.392	1202
27.4	1189.99999999999
27.408	1179
27.416	1169
27.424	1158
27.432	1148
27.44	1140
27.448	1132
27.456	1124
27.464	1116
27.472	1109
27.48	1103
27.488	1096
27.496	1088
27.504	1080
27.512	1072
27.52	1063
27.528	1053
27.536	1043
27.544	1035
27.552	1031
27.56	1040.00000000001
27.568	1064
27.576	1106
27.584	1178
27.592	1287.00000000005
27.6	1426
27.608	1589
27.616	1776
27.624	1975.00000000009
27.632	2178
27.64	2374
27.648	2553
27.656	2705
27.664	2831
27.672	2930
27.68	2995
27.688	3027
27.696	3034
27.704	3022
27.712	2991
27.72	2943
27.728	2882
27.736	2812
27.744	2733
27.752	2646
27.76	2553
27.768	2456
27.776	2353
27.784	2245
27.792	2133
27.8	2020
27.808	1907
27.816	1798
27.824	1694
27.832	1599
27.84	1515
27.848	1444
27.856	1385
27.864	1338
27.872	1304
27.88	1285
27.888	1278
27.896	1279
27.904	1290
27.912	1307
27.92	1329
27.928	1352
27.936	1375
27.944	1397
27.952	1416
27.96	1432
27.968	1443
27.976	1449
27.984	1450
27.992	1447
28	1442
28.008	1433
28.016	1421.99999999999
28.024	1409
28.032	1395
28.04	1379
28.048	1360.99999999999
28.056	1342
28.064	1323
28.072	1305
28.08	1286.99999999999
28.088	1270
28.096	1254
28.104	1239
28.112	1224.99999999999
28.12	1211
28.128	1198
28.136	1186
28.144	1175
28.152	1166
28.16	1156
28.168	1146
28.176	1138
28.184	1130
28.192	1122
28.2	1114
28.208	1105
28.216	1097
28.224	1090
28.232	1082
28.24	1073
28.248	1066
28.256	1058
28.264	1048
28.272	1038
28.28	1029
28.288	1023
28.296	1028
28.304	1046.00000000001
28.312	1083
28.32	1149
28.328	1250
28.336	1382.00000000006
28.344	1540
28.352	1724
28.36	1922
28.368	2126.00000000009
28.376	2328
28.384	2515
28.392	2676
28.4	2810.00000000005
28.408	2917
28.416	2991
28.424	3030
28.432	3042
28.44	3033
28.448	3002
28.456	2951
28.464	2887.99999999997
28.472	2817
28.48	2738
28.488	2650
28.496	2556.99999999996
28.504	2461
28.512	2359
28.52	2251
28.528	2139.99999999995
28.536	2027
28.544	1914
28.552	1804
28.56	1699.99999999996
28.568	1604
28.576	1518
28.584	1444
28.592	1381.99999999998
28.6	1332
28.608	1296
28.616	1274
28.624	1264
28.632	1264
28.64	1273
28.648	1289
28.656	1310.00000000001
28.664	1333
28.672	1356
28.68	1377
28.688	1397
28.696	1413
28.704	1425
28.712	1433
28.72	1437
28.728	1437
28.736	1433
28.744	1425
28.752	1415
28.76	1402
28.768	1386
28.776	1370
28.784	1352
28.792	1334
28.8	1316
28.808	1298
28.816	1280
28.824	1263
28.832	1247
28.84	1230
28.848	1214
28.856	1200
28.864	1187
28.872	1175
28.88	1164
28.888	1154
28.896	1145
28.904	1136
28.912	1126
28.92	1118
28.928	1110
28.936	1101
28.944	1093
28.952	1085
28.96	1077
28.968	1070
28.976	1063
28.984	1056
28.992	1049
29	1041
29.008	1031
29.016	1022
29.024	1014
29.032	1014
29.04	1024
29.048	1049.00000000002
29.056	1101
29.064	1188
29.072	1304
29.08	1446.00000000007
29.088	1619
29.096	1815
29.104	2022
29.112	2227.00000000009
29.12	2421
29.128	2593
29.136	2742
29.144	2865.00000000005
29.152	2955
29.16	3009
29.168	3035
29.176	3039
29.184	3018
29.192	2975
29.2	2919
29.208	2852.99999999997
29.216	2777
29.224	2692
29.232	2600
29.24	2503.99999999996
29.248	2403
29.256	2297
29.264	2187
29.272	2074.99999999995
29.28	1962
29.288	1851
29.296	1745
29.304	1644.99999999996
29.312	1553
29.32	1472
29.328	1402
29.336	1344.99999999998
29.344	1304
29.352	1276
29.36	1259
29.368	1253
29.376	1257
29.384	1269
29.392	1287
29.4	1308.00000000001
29.408	1331
29.416	1354
29.424	1374
29.432	1392.00000000001
29.44	1406
29.448	1415
29.456	1421
29.464	1424
29.472	1423
29.48	1419
29.488	1411
29.496	1399.99999999999
29.504	1387
29.512	1372
29.52	1354
29.528	1335.99999999999
29.536	1318
29.544	1300
29.552	1281
29.56	1263.99999999999
29.568	1247
29.576	1231
29.584	1218
29.592	1204.99999999999
29.6	1192
29.608	1179
29.616	1168
29.624	1157
29.632	1146
29.64	1135
29.648	1126
29.656	1117
29.664	1109
29.672	1101
29.68	1093
29.688	1085
29.696	1076
29.704	1067
29.712	1061
29.72	1055
29.728	1049
29.736	1042
29.744	1033
29.752	1025
29.76	1018
29.768	1016
29.776	1023
29.784	1044
29.792	1087
29.8	1164
29.808	1270
29.816	1403
29.824	1569
29.832	1760
29.84	1964
29.848	2171
29.856	2371
29.864	2550
29.872	2707
29.88	2841
29.888	2941
29.896	3005
29.904	3040
29.912	3050
29.92	3035
29.928	2998
29.936	2945
29.944	2882
29.952	2808
29.96	2725
29.968	2637
29.976	2544
29.984	2443
29.992	2337
30	2227
30.008	2115
30.016	2000.99999999995
30.024	1889
30.032	1781
30.04	1678
30.048	1581.99999999996
30.056	1497
30.064	1424
30.072	1362
30.08	1314.99999999998
30.088	1285
30.096	1267
30.104	1259
30.112	1262
30.12	1273
30.128	1290
30.136	1310
30.144	1334.00000000001
30.152	1359
30.16	1383
30.168	1405
30.176	1423.00000000001
30.184	1435
30.192	1443
30.2	1448
30.208	1448
30.216	1444
30.224	1437
30.232	1428
30.24	1415.99999999999
30.248	1401
30.256	1385
30.264	1368
30.272	1347.99999999999
30.28	1328
30.288	1309
30.296	1290
30.304	1271.99999999999
30.312	1255
30.32	1239
30.328	1225
30.336	1211.99999999999
30.344	1199
30.352	1188
30.36	1177
30.368	1167
30.376	1157
30.384	1148
30.392	1139
30.4	1129
30.408	1119
30.416	1109
30.424	1100
30.432	1092
30.44	1084
30.448	1076
30.456	1069
30.464	1063
30.472	1056
30.48	1048
30.488	1039
30.496	1031
30.504	1029
30.512	1033
30.52	1047
30.528	1081.00000000002
30.536	1146
30.544	1241
30.552	1364
30.56	1518.00000000007
30.568	1700
30.576	1899
30.584	2105
30.592	2308.00000000009
30.6	2492
30.608	2656
30.616	2797
30.624	2906.00000000004
30.632	2979
30.64	3024
30.648	3043
30.656	3034.99999999999
30.664	3004
30.672	2956
30.68	2896
30.688	2824.99999999997
30.696	2746
30.704	2660
30.712	2569
30.72	2473
30.728	2370
30.736	2262
30.744	2152
30.752	2039
30.76	1927
30.768	1817
30.776	1712
30.784	1614
30.792	1527
30.8	1452
30.808	1387
30.816	1336
30.824	1299
30.832	1276
30.84	1264
30.848	1263
30.856	1272
30.864	1287
30.872	1307
30.88	1330
30.888	1353
30.896	1376
30.904	1396
30.912	1414
30.92	1428
30.928	1438
30.936	1445
30.944	1448
30.952	1445
30.96	1438
30.968	1428
30.976	1416
30.984	1402
30.992	1387
31	1371
31.008	1354
31.016	1334.99999999999
31.024	1316
31.032	1297
31.04	1279
31.048	1261.99999999999
31.056	1246
31.064	1231
31.072	1217
31.08	1203.99999999999
31.088	1192
31.096	1181
31.104	1171
31.112	1161
31.12	1152
31.128	1143
31.136	1135
31.144	1127
31.152	1117
31.16	1108
31.168	1100
31.176	1092
31.184	1084
31.192	1077
31.2	1071
31.208	1063
31.216	1054
31.224	1044
31.232	1034
31.24	1027
31.248	1025
31.256	1032
31.264	1057
31.272	1111.00000000003
31.28	1192
31.288	1300
31.296	1441
31.304	1613.00000000008
31.312	1805
31.32	2005
31.328	2206
31.336	2394.00000000008
31.344	2565
31.352	2716
31.36	2837
31.368	2923.00000000003
31.376	2980
31.384	3013
31.392	3019
31.4	2998.99999999999
31.408	2960
31.416	2907
31.424	2842
31.432	2765.99999999996
31.44	2683
31.448	2595
31.456	2501
31.464	2399.99999999995
31.472	2293
31.48	2183
31.488	2069
31.496	1955.99999999995
31.504	1844
31.512	1735
31.52	1634
31.528	1542.99999999996
31.536	1463
31.544	1394
31.552	1338
31.56	1296.99999999998
31.568	1268
31.576	1248
31.584	1242
31.592	1248
31.6	1260
31.608	1277
31.616	1299
31.624	1322.00000000001
31.632	1346
31.64	1369
31.648	1388
31.656	1402.00000000001
31.664	1413
31.672	1421
31.68	1424
31.688	1422
31.696	1418
31.704	1411
31.712	1401
31.72	1388.99999999999
31.728	1375
31.736	1359
31.744	1341
31.752	1323
31.76	1306
31.768	1288
31.776	1270
31.784	1253
31.792	1237
31.8	1221
31.808	1206
31.816	1192
31.824	1179
31.832	1168
31.84	1158
31.848	1148
31.856	1138
31.864	1130
31.872	1122
31.88	1113
31.888	1105
31.896	1097
31.904	1090
31.912	1083
31.92	1076
31.928	1068
31.936	1060
31.944	1052
31.952	1045
31.96	1038
31.968	1030
31.976	1025
31.984	1023
31.992	1027
32	1044
32.008	1086
32.016	1154
32.024	1248
32.032	1376.00000000013
32.04	1536
32.048	1720
32.056	1917
32.064	2119
32.072	2313
32.08	2495
32.088	2657
32.096	2790.0000000001
32.104	2888
32.112	2955
32.12	2998
32.128	3011
32.136	2997
32.144	2964
32.152	2916
32.16	2853.99999999994
32.168	2780
32.176	2698
32.184	2611
32.192	2518
32.2	2417
32.208	2313
32.216	2206
32.224	2093.9999999999
32.232	1981
32.24	1870
32.248	1762
32.256	1660
32.264	1567
32.272	1484
32.28	1412
32.288	1353.99999999996
32.296	1310
32.304	1278
32.312	1257
32.32	1248
32.328	1249
32.336	1260
32.344	1277
32.352	1300.00000000002
32.36	1325
32.368	1350
32.376	1373
32.384	1395
32.392	1412
32.4	1425
32.408	1435
32.416	1440
32.424	1440
32.432	1435
32.44	1428
32.448	1419
32.456	1407
32.464	1392
32.472	1376
32.48	1359.99999999999
32.488	1343
32.496	1325
32.504	1307
32.512	1289
32.52	1271
32.528	1255
32.536	1240
32.544	1223.99999999999
32.552	1209
32.56	1197
32.568	1186
32.576	1174
32.584	1163
32.592	1154
32.6	1145
32.608	1137.99999999999
32.616	1130
32.624	1121
32.632	1114
32.64	1107
32.648	1099
32.656	1091
32.664	1085
32.672	1078.99999999999
32.68	1072
32.688	1064
32.696	1056
32.704	1047
32.712	1039
32.72	1034
32.728	1035
32.736	1050.00000000002
32.744	1088
32.752	1149
32.76	1237
32.768	1359
32.776	1515
32.784	1697
32.792	1892
32.8	2093
32.808	2290
32.816	2476
32.824	2644
32.832	2785
32.84	2893
32.848	2970
32.856	3020
32.864	3040
32.872	3032
32.88	3004
32.888	2960
32.896	2901
32.904	2830
32.912	2750
32.92	2665
32.928	2573
32.936	2473
32.944	2369
32.952	2261
32.96	2148
32.968	2034
32.976	1921
32.984	1811
32.992	1706
33	1609
33.008	1522
33.016	1444
33.024	1380
33.032	1331.99999999996
33.04	1297
33.048	1274
33.056	1262
33.064	1262
33.072	1272
33.08	1287
33.088	1307
33.096	1331.00000000002
33.104	1357
33.112	1382
33.12	1403
33.128	1421
33.136	1436
33.144	1447
33.152	1453
33.16	1453
33.168	1450
33.176	1444
33.184	1435
33.192	1423
33.2	1409
33.208	1394
33.216	1376
33.224	1357.99999999998
33.232	1340
33.24	1322
33.248	1305
33.256	1288
33.264	1270
33.272	1254
33.28	1240
33.288	1225.99999999999
33.296	1212
33.304	1200
33.312	1190
33.32	1180
33.328	1170
33.336	1161
33.344	1152
33.352	1141.99999999999
33.36	1133
33.368	1126
33.376	1118
33.384	1109
33.392	1102
33.4	1095
33.408	1089
33.416	1082.99999999999
33.424	1076
33.432	1068
33.44	1059
33.448	1051
33.456	1044
33.464	1041
33.472	1051
33.48	1082.00000000003
33.488	1133
33.496	1210
33.504	1322
33.512	1470
33.52	1645
33.528	1837
33.536	2041
33.544	2244.00000000018
33.552	2437
33.56	2615
33.568	2767
33.576	2884
33.584	2970
33.592	3030
33.6	3060
33.608	3060
33.616	3037
33.624	2999
33.632	2944
33.64	2875
33.648	2799
33.656	2716
33.664	2625
33.672	2527.99999999991
33.68	2426
33.688	2321
33.696	2211
33.704	2097
33.712	1983
33.72	1871
33.728	1763
33.736	1663.99999999992
33.744	1573
33.752	1491
33.76	1422
33.768	1367
33.776	1326
33.784	1296
33.792	1279
33.8	1276
33.808	1282
33.816	1295
33.824	1314
33.832	1336
33.84	1360
33.848	1385
33.856	1409
33.864	1427
33.872	1442
33.88	1455
33.888	1464
33.896	1465
33.904	1463
33.912	1459
33.92	1451
33.928	1440
33.936	1427
33.944	1413
33.952	1396
33.96	1376
33.968	1356
33.976	1338
33.984	1320
33.992	1301
34	1284
34.008	1268
34.016	1252
34.024	1237
34.032	1223.99999999999
34.04	1211
34.048	1200
34.056	1189
34.064	1179
34.072	1169
34.08	1159
34.088	1151
34.096	1143.99999999999
34.104	1136
34.112	1127
34.12	1119
34.128	1112
34.136	1105
34.144	1099
34.152	1092
34.16	1083.99999999999
34.168	1076
34.176	1067
34.184	1059
34.192	1052
34.2	1048
34.208	1053
34.216	1077
34.224	1121.00000000005
34.232	1188
34.24	1289
34.248	1427
34.256	1592
34.264	1776
34.272	1976
34.28	2179
34.288	2377.00000000017
34.296	2561
34.304	2721
34.312	2847
34.32	2944
34.328	3015
34.336	3053
34.344	3059
34.352	3042.99999999998
34.36	3011
34.368	2961
34.376	2895
34.384	2820
34.392	2739
34.4	2652
34.408	2556
34.416	2453.99999999991
34.424	2350
34.432	2242
34.44	2129
34.448	2015
34.456	1902
34.464	1792
34.472	1689
34.48	1593.99999999992
34.488	1508
34.496	1435
34.504	1377
34.512	1331
34.52	1297
34.528	1277
34.536	1271
34.544	1275.00000000001
34.552	1286
34.56	1304
34.568	1326
34.576	1350
34.584	1375
34.592	1399
34.6	1420
34.608	1437.00000000001
34.616	1451
34.624	1460
34.632	1462
34.64	1460
34.648	1456
34.656	1449
34.664	1438
34.672	1424.99999999999
34.68	1411
34.688	1394
34.696	1376
34.704	1357
34.712	1339
34.72	1321
34.728	1302
34.736	1283.99999999998
34.744	1268
34.752	1253
34.76	1240
34.768	1227
34.776	1215
34.784	1203
34.792	1191
34.8	1179.99999999999
34.808	1170
34.816	1161
34.824	1153
34.832	1145
34.84	1138
34.848	1130
34.856	1121
34.864	1114
34.872	1107
34.88	1100
34.888	1091
34.896	1083
34.904	1076
34.912	1068
34.92	1059
34.928	1050
34.936	1043
34.944	1043
34.952	1058
34.96	1088
34.968	1140
34.976	1225
34.984	1347
34.992	1499
35	1673
35.008	1869
35.016	2074
35.024	2277
35.032	2472.00000000016
35.04	2646
35.048	2790
35.056	2907
35.064	2997
35.072	3053
35.08	3075
35.088	3071
35.096	3046.99999999997
35.104	3003
35.112	2944
35.12	2874
35.128	2796
35.136	2710
35.144	2617
35.152	2519
35.16	2416.99999999991
35.168	2310
35.176	2197
35.184	2083
35.192	1969
35.2	1855
35.208	1746
35.216	1644
35.224	1549.99999999992
35.232	1468
35.24	1401
35.248	1347
35.256	1305
35.264	1277
35.272	1263
35.28	1261
35.288	1269.00000000001
35.296	1286
35.304	1308
35.312	1332
35.32	1357
35.328	1383
35.336	1406
35.344	1425
35.352	1442.00000000001
35.36	1454
35.368	1460
35.376	1462
35.384	1461
35.392	1457
35.4	1448
35.408	1435
35.416	1421.99999999999
35.424	1406
35.432	1388
35.44	1369
35.448	1351
35.456	1333
35.464	1314
35.472	1295
35.48	1277.99999999998
35.488	1261
35.496	1246
35.504	1231
35.512	1217
35.52	1205
35.528	1195
35.536	1186
35.544	1175.99999999999
35.552	1166
35.56	1156
35.568	1146
35.576	1137
35.584	1129
35.592	1121
35.6	1113
35.608	1105.99999999999
35.616	1099
35.624	1092
35.632	1085
35.64	1079
35.648	1071
35.656	1062
35.664	1052
35.672	1042.99999999999
35.68	1039
35.688	1048
35.696	1070
35.704	1110
35.712	1180
35.72	1287
35.728	1426
35.736	1589.00000000016
35.744	1778
35.752	1981
35.76	2190
35.768	2393
35.776	2580
35.784	2738
35.792	2869
35.8	2974.00000000008
35.808	3045
35.816	3083
35.824	3093
35.832	3080
35.84	3045
35.848	2993
35.856	2928
35.864	2854
35.872	2772
35.88	2683
35.888	2589
35.896	2490
35.904	2385
35.912	2275
35.92	2161
35.928	2045
35.936	1930
35.944	1819
35.952	1714
35.96	1616
35.968	1528
35.976	1454
35.984	1393
35.992	1343
36	1307
36.008	1287
36.016	1279
36.024	1282
36.032	1294.00000000001
36.04	1312
36.048	1335
36.056	1361
36.064	1388
36.072	1413
36.08	1436
36.088	1455
36.096	1470.00000000001
36.104	1479
36.112	1484
36.12	1485
36.128	1481
36.136	1472
36.144	1460
36.152	1446
36.16	1429.99999999998
36.168	1412
36.176	1394
36.184	1376
36.192	1358
36.2	1340
36.208	1321
36.216	1303
36.224	1285.99999999999
36.232	1270
36.24	1255
36.248	1241
36.256	1229
36.264	1218
36.272	1206
36.28	1195
36.288	1184.99999999999
36.296	1175
36.304	1166
36.312	1157
36.32	1149
36.328	1140
36.336	1130
36.344	1120
36.352	1110.99999999999
36.36	1104
36.368	1097
36.376	1090
36.384	1081
36.392	1073
36.4	1065
36.408	1057
36.416	1052
36.424	1055
36.432	1068
36.44	1096
36.448	1151
36.456	1242
36.464	1363
36.472	1511
36.48	1689.00000000017
36.488	1888
36.496	2096
36.504	2303
36.512	2499
36.52	2670
36.528	2816
36.536	2937
36.544	3024.00000000006
36.552	3073
36.56	3094
36.568	3093
36.576	3069
36.584	3024
36.592	2964
36.6	2895
36.608	2816.99999999993
36.616	2730
36.624	2636
36.632	2539
36.64	2438
36.648	2329
36.656	2217
36.664	2105
36.672	1990.9999999999
36.68	1878
36.688	1769
36.696	1667
36.704	1574
36.712	1493
36.72	1426
36.728	1370
36.736	1328.99999999997
36.744	1304
36.752	1290
36.76	1285
36.768	1290
36.776	1304
36.784	1324
36.792	1347
36.8	1372.00000000002
36.808	1396
36.816	1418
36.824	1437
36.832	1458
36.84	1466
36.848	1470
36.856	1465
36.864	1456.99999999999
36.872	1446
36.88	1427
36.888	1412
36.896	1393
36.904	1374
36.912	1344
36.92	1324
36.928	1306
36.936	1273
36.944	1257
36.952	1241
36.96	1220
36.968	1207
36.976	1196
36.984	1185
36.992	1175
37	1165
37.008	1155
37.016	1146
37.024	1137
37.032	1127.99999999999
37.04	1118
37.048	1110
37.056	1103
37.064	1096
37.072	1088
37.08	1080
37.088	1072
37.096	1063.99999999999
37.104	1056
37.112	1048
37.12	1039
37.128	1036
37.136	1042
37.144	1061
37.152	1103
37.16	1177.00000000008
37.168	1280
37.176	1411
37.184	1575
37.192	1762
37.2	1963
37.208	2168
37.216	2365
37.224	2543.00000000015
37.232	2700
37.24	2834
37.248	2936
37.256	3001
37.264	3037
37.272	3050
37.28	3036
37.288	2997.99999999996
37.296	2945
37.304	2882
37.312	2807
37.32	2724
37.328	2634
37.336	2539
37.344	2439
37.352	2332.9999999999
37.36	2223
37.368	2112
37.376	1999
37.384	1888
37.392	1780
37.4	1677
37.408	1583
37.416	1499.99999999993
37.424	1428
37.432	1367
37.44	1320
37.448	1288
37.456	1269
37.464	1260
37.472	1261
37.48	1272.00000000001
37.488	1288
37.496	1309
37.504	1332
37.512	1354
37.52	1377
37.528	1399
37.536	1417
37.544	1430.00000000001
37.552	1438
37.56	1442
37.568	1442
37.576	1437
37.584	1428
37.592	1417
37.6	1405
37.608	1389.99999999999
37.616	1372
37.624	1354
37.632	1335
37.64	1315
37.648	1296
37.656	1278
37.664	1260
37.672	1241.99999999998
37.68	1226
37.688	1212
37.696	1199
37.704	1187
37.712	1176
37.72	1165
37.728	1155
37.736	1145.99999999999
37.744	1136
37.752	1126
37.76	1117
37.768	1109
37.776	1101
37.784	1093
37.792	1085
37.8	1076.99999999999
37.808	1070
37.816	1064
37.824	1058
37.832	1050
37.84	1041
37.848	1032
37.856	1023
37.864	1018
37.872	1015
37.88	1021
37.888	1044
37.896	1095
37.904	1174
37.912	1277
37.92	1414
37.928	1583
37.936	1774
37.944	1975
37.952	2179
37.96	2371
37.968	2548
37.976	2704
37.984	2831
37.992	2924
38	2985
38.008	3021
38.016	3028
38.024	3007
38.032	2968.99999999996
38.04	2917
38.048	2851
38.056	2775
38.064	2691
38.072	2601
38.08	2505
38.088	2402
38.096	2292.9999999999
38.104	2182
38.112	2068
38.12	1953
38.128	1839
38.136	1729
38.144	1627
38.152	1535
38.16	1453.99999999993
38.168	1384
38.176	1327
38.184	1286
38.192	1258
38.2	1241
38.208	1237
38.216	1245
38.224	1260.00000000002
38.232	1280
38.24	1305
38.248	1332
38.256	1358
38.264	1382
38.272	1403
38.28	1420
38.288	1432.00000000001
38.296	1441
38.304	1446
38.312	1445
38.32	1441
38.328	1433
38.336	1422
38.344	1408
38.352	1391.99999999999
38.36	1376
38.368	1359
38.376	1340
38.384	1320
38.392	1302
38.4	1284
38.408	1265
38.416	1247.99999999999
38.424	1232
38.432	1217
38.44	1205
38.448	1194
38.456	1183
38.464	1173
38.472	1162
38.48	1151.99999999999
38.488	1143
38.496	1134
38.504	1124
38.512	1115
38.52	1109
38.528	1102
38.536	1093
38.544	1085.99999999999
38.552	1079
38.56	1073
38.568	1067
38.576	1060
38.584	1051
38.592	1041
38.6	1033
38.608	1028
38.616	1027
38.624	1040
38.632	1077
38.64	1138
38.648	1224
38.656	1345
38.664	1501
38.672	1681.00000000017
38.68	1875
38.688	2078
38.696	2276
38.704	2464
38.712	2635
38.72	2779
38.728	2888
38.736	2965.00000000006
38.744	3017
38.752	3038
38.76	3029
38.768	3001
38.776	2957
38.784	2898
38.792	2826
38.8	2746.99999999993
38.808	2664
38.816	2572
38.824	2472
38.832	2369
38.84	2263
38.848	2152
38.856	2039
38.864	1925.9999999999
38.872	1815
38.88	1710
38.888	1612
38.896	1523
38.904	1445
38.912	1380
38.92	1329
38.928	1292
38.936	1267
38.944	1255
38.952	1255
38.96	1265
38.968	1282
38.976	1304
38.984	1329
38.992	1356
39	1381
39.008	1404
39.016	1422
39.024	1436
39.032	1448.00000000001
39.04	1456
39.048	1457
39.056	1454
39.064	1448
39.072	1439
39.08	1427
39.088	1412
39.096	1395.99999999999
39.104	1379
39.112	1361
39.12	1343
39.128	1324
39.136	1304
39.144	1285
39.152	1267
39.16	1250.99999999999
39.168	1236
39.176	1221
39.184	1208
39.192	1195
39.2	1184
39.208	1173
39.216	1163
39.224	1154.99999999999
39.232	1147
39.24	1138
39.248	1129
39.256	1121
39.264	1113
39.272	1105
39.28	1098
39.288	1090.99999999999
39.296	1084
39.304	1075
39.312	1066
39.32	1057
39.328	1048
39.336	1039
39.344	1033
39.352	1031
39.36	1039
39.368	1068
39.376	1118
39.384	1192
39.392	1301
39.4	1447
39.408	1619
39.416	1809.00000000017
39.424	2013
39.432	2216
39.44	2410
39.448	2589
39.456	2742
39.464	2860
39.472	2950
39.48	3014.00000000004
39.488	3045
39.496	3046
39.504	3024
39.512	2985
39.52	2930
39.528	2862
39.536	2785
39.544	2701.99999999992
39.552	2612
39.56	2515
39.568	2413
39.576	2307
39.584	2197
39.592	2083
39.6	1969
39.608	1857.9999999999
39.616	1750
39.624	1649
39.632	1557
39.64	1475
39.648	1405
39.656	1349
39.664	1306
39.672	1274.99999999998
39.68	1259
39.688	1255
39.696	1261
39.704	1275
39.712	1295
39.72	1319
39.728	1345
39.736	1370.00000000002
39.744	1392
39.752	1411
39.76	1428
39.768	1441
39.776	1450
39.784	1453
39.792	1452
39.8	1446.99999999999
39.808	1439
39.816	1428
39.824	1414
39.832	1399
39.84	1383
39.848	1364
39.856	1343
39.864	1322.99999999998
39.872	1304
39.88	1285
39.888	1267
39.896	1251
39.904	1235
39.912	1220
39.92	1207
39.928	1194.99999999999
39.936	1183
39.944	1171
39.952	1160
39.96	1150
39.968	1140
39.976	1130
39.984	1121
39.992	1113
40	1105
40.008	1096
40.016	1088
40.024	1082
40.032	1074.99999999999
40.04	1068
40.048	1061
40.056	1054
40.064	1045
40.072	1036
40.08	1026
40.088	1020
40.096	1022
40.104	1042
40.112	1083
40.12	1148
40.128	1246
40.136	1382
40.144	1546
40.152	1729
40.16	1929.00000000018
40.168	2133
40.176	2333
40.184	2520
40.192	2684
40.2	2816
40.208	2919
40.216	2995
40.224	3038.00000000002
40.232	3050
40.24	3038
40.248	3008
40.256	2960
40.264	2896
40.272	2822
40.28	2742
40.288	2653.99999999992
40.296	2558
40.304	2457
40.312	2354
40.32	2245
40.328	2132
40.336	2018
40.344	1905
40.352	1794.9999999999
40.36	1691
40.368	1595
40.376	1508
40.384	1433
40.392	1373
40.4	1324
40.408	1287
40.416	1264.99999999999
40.424	1256
40.432	1257
40.44	1266
40.448	1281
40.456	1301
40.464	1324
40.472	1348
40.48	1370.00000000002
40.488	1390
40.496	1408
40.504	1422
40.512	1432
40.52	1437
40.528	1439
40.536	1437
40.544	1429.99999999999
40.552	1419
40.56	1406
40.568	1391
40.576	1376
40.584	1359
40.592	1341
40.6	1322
40.608	1302.99999999998
40.616	1285
40.624	1267
40.632	1250
40.64	1233
40.648	1218
40.656	1204
40.664	1191
40.672	1177.99999999999
40.68	1165
40.688	1154
40.696	1142
40.704	1132
40.712	1124
40.72	1117
40.728	1110
40.736	1100.99999999999
40.744	1093
40.752	1086
40.76	1079
40.768	1072
40.776	1065
40.784	1059
40.792	1051
40.8	1040.99999999999
40.808	1030
40.816	1019
40.824	1011
40.832	1010
40.84	1024
40.848	1054
40.856	1105
40.864	1189.00000000009
40.872	1312
40.88	1464
40.888	1637
40.896	1831
40.904	2033
40.912	2235
40.92	2427
40.928	2597.00000000014
40.936	2737
40.944	2851
40.952	2938
40.96	2991
40.968	3013
40.976	3009
40.984	2986
40.992	2945
41	2889
41.008	2821
41.016	2745
41.024	2661
41.032	2568.99999999992
41.04	2473
41.048	2374
41.056	2268
41.064	2156
41.072	2043
41.08	1932
41.088	1822
41.096	1717.99999999991
41.104	1619
41.112	1528
41.12	1449
41.128	1384
41.136	1330
41.144	1288
41.152	1259
41.16	1245
41.168	1242
41.176	1246
41.184	1259
41.192	1278
41.2	1299
41.208	1323
41.216	1347
41.224	1368.00000000002
41.232	1387
41.24	1404
41.248	1415
41.256	1421
41.264	1422
41.272	1420
41.28	1415
41.288	1406.99999999999
41.296	1395
41.304	1380
41.312	1364
41.32	1348
41.328	1331
41.336	1313
41.344	1294
41.352	1273.99999999998
41.36	1255
41.368	1239
41.376	1224
41.384	1209
41.392	1195
41.4	1181
41.408	1168
41.416	1154.99999999999
41.424	1144
41.432	1134
41.44	1124
41.448	1114
41.456	1105
41.464	1098
41.472	1091
41.48	1082.99999999999
41.488	1075
41.496	1068
41.504	1060
41.512	1052
41.52	1044
41.528	1036
41.536	1028
41.544	1018.99999999999
41.552	1010
41.56	1002
41.568	997
41.576	1004
41.584	1024
41.592	1062
41.6	1130
41.608	1234.0000000001
41.616	1368
41.624	1528
41.632	1714
41.64	1914
41.648	2118
41.656	2315
41.664	2496
41.672	2650.00000000012
41.68	2779
41.688	2882
41.696	2951
41.704	2988
41.712	2998
41.72	2987
41.728	2955
41.736	2904.99999999995
41.744	2843
41.752	2772
41.76	2693
41.768	2608
41.776	2517
41.784	2423
41.792	2323
41.8	2216.9999999999
41.808	2107
41.816	1996
41.824	1886
41.832	1780
41.84	1678
41.848	1583
41.856	1498
41.864	1423.99999999994
41.872	1363
41.88	1314
41.888	1278
41.896	1256
41.904	1244
41.912	1242
41.92	1250
41.928	1265.00000000002
41.936	1286
41.944	1309
41.952	1333
41.96	1355
41.968	1375
41.976	1393
41.984	1406
41.992	1413
42	1418
42.008	1420
42.016	1418
42.024	1412
42.032	1403.99999999999
42.04	1394
42.048	1381
42.056	1367
42.064	1352
42.072	1335
42.08	1318
42.088	1301
42.096	1284.99999999999
42.104	1269
42.112	1252
42.12	1235
42.128	1221
42.136	1208
42.144	1195
42.152	1184
42.16	1172.99999999999
42.168	1163
42.176	1153
42.184	1143
42.192	1134
42.2	1124
42.208	1114
42.216	1104
42.224	1093.99999999999
42.232	1086
42.24	1079
42.248	1072
42.256	1065
42.264	1060
42.272	1053
42.28	1044
42.288	1033.99999999999
42.296	1026
42.304	1020
42.312	1023
42.32	1039
42.328	1072
42.336	1133
42.344	1230
42.352	1357.00000000012
42.36	1510
42.368	1688
42.376	1883
42.384	2086
42.392	2285
42.4	2470
42.408	2629
42.416	2764.00000000011
42.424	2872
42.432	2947
42.44	2988
42.448	3001
42.456	2995
42.464	2967
42.472	2920
42.48	2859.99999999994
42.488	2791
42.496	2715
42.504	2632
42.512	2542
42.52	2447
42.528	2347
42.536	2242
42.544	2133.9999999999
42.552	2025
42.56	1916
42.568	1809
42.576	1706
42.584	1608
42.592	1519
42.6	1444
42.608	1379.99999999995
42.616	1327
42.624	1289
42.632	1265
42.64	1253
42.648	1250
42.656	1256
42.664	1270
42.672	1290.00000000002
42.68	1313
42.688	1336
42.696	1357
42.704	1378
42.712	1396
42.72	1410
42.728	1419
42.736	1424
42.744	1426
42.752	1425
42.76	1420
42.768	1411
42.776	1399
42.784	1385
42.792	1370
42.8	1352.99999999999
42.808	1337
42.816	1320
42.824	1302
42.832	1285
42.84	1269
42.848	1253
42.856	1237
42.864	1221.99999999999
42.872	1207
42.88	1194
42.888	1182
42.896	1171
42.904	1161
42.912	1151
42.92	1141
42.928	1130.99999999999
42.936	1122
42.944	1113
42.952	1105
42.96	1096
42.968	1086
42.976	1077
42.984	1069
42.992	1061.99999999999
43	1055
43.008	1048
43.016	1039
43.024	1030
43.032	1019.99999999999
43.04	1012
43.048	1014
43.056	1027
43.064	1055
43.072	1108
43.08	1196
43.088	1314
43.096	1456.00000000014
43.104	1625
43.112	1813
43.12	2009
43.128	2203
43.136	2384
43.144	2541
43.152	2676
43.16	2785.00000000008
43.168	2864
43.176	2909
43.184	2927
43.192	2924
43.2	2899
43.208	2856
43.216	2799
43.224	2734.99999999994
43.232	2662
43.24	2579
43.248	2490
43.256	2396
43.264	2298
43.272	2195
43.28	2089
43.288	1980.9999999999
43.296	1872
43.304	1765
43.312	1663
43.32	1567
43.328	1479
43.336	1403
43.344	1339
43.352	1284.99999999996
43.36	1244
43.368	1218
43.376	1205
43.384	1203
43.392	1211
43.4	1226
43.408	1245
43.416	1268.00000000002
43.424	1292
43.432	1315
43.44	1337
43.448	1356
43.456	1370
43.464	1379
43.472	1384
43.48	1384
43.488	1380
43.496	1372
43.504	1361
43.512	1349
43.52	1335
43.528	1319
43.536	1301
43.544	1282.99999999998
43.552	1266
43.56	1249
43.568	1232
43.576	1213
43.584	1195
43.592	1179
43.6	1165
43.608	1151.99999999999
43.616	1138
43.624	1125
43.632	1114
43.64	1102
43.648	1091
43.656	1081
43.664	1071
43.672	1060.99999999999
43.68	1051
43.688	1042
43.696	1032
43.704	1022
43.712	1013
43.72	1005
43.728	998
43.736	989.999999999993
43.744	982
43.752	973
43.76	963
43.768	954
43.776	946
43.784	945
43.792	954
43.8	975.000000000025
43.808	1020
43.816	1097
43.824	1202
43.832	1331
43.84	1488
43.848	1662
43.856	1846
43.864	2031.00000000016
43.872	2206
43.88	2359
43.888	2491
43.896	2600
43.904	2680
43.912	2729
43.92	2752
43.928	2754
43.936	2735
43.944	2697
43.952	2646
43.96	2587
43.968	2519
43.976	2441
43.984	2358
43.992	2271.99999999992
44	2181
44.008	2084
44.016	1984
44.024	1884
44.032	1782.99999999991
44.04	1685
44.048	1590
44.056	1499
44.064	1417
44.072	1346
44.08	1285
44.088	1235
44.096	1196.99999999997
44.104	1172
44.112	1157
44.12	1153
44.128	1158
44.136	1169
44.144	1186
44.152	1206
44.16	1228.00000000002
44.168	1248
44.176	1267
44.184	1285
44.192	1299
44.2	1308
44.208	1313
44.216	1316
44.224	1314
44.232	1308
44.24	1300
44.248	1290
44.256	1278
44.264	1265
44.272	1250
44.28	1233
44.288	1216.99999999999
44.296	1201
44.304	1185
44.312	1170
44.32	1154
44.328	1138
44.336	1124
44.344	1112
44.352	1100.99999999999
44.36	1090
44.368	1079
44.376	1069
44.384	1059
44.392	1050
44.4	1041
44.408	1033
44.416	1024.99999999999
44.424	1017
44.432	1009
44.44	1001
44.448	993
44.456	985
44.464	978
44.472	970
44.48	960.999999999992
44.488	952
44.496	942
44.504	933
44.512	926
44.52	924
44.528	930
44.536	948
44.544	988.000000000045
44.552	1059
44.56	1156
44.568	1275
44.576	1421
44.584	1586
44.592	1760
44.6	1934
44.608	2100.00000000014
44.616	2247
44.624	2375
44.632	2483
44.64	2563
44.648	2612
44.656	2637
44.664	2644
44.672	2628.99999999998
44.68	2597
44.688	2553
44.696	2500
44.704	2438
44.712	2368
44.72	2292
44.728	2213
44.736	2129.99999999992
44.744	2041
44.752	1950
44.76	1857
44.768	1763
44.776	1670
44.784	1580
44.792	1495
44.8	1417.99999999994
44.808	1351
44.816	1294
44.824	1246
44.832	1211
44.84	1188
44.848	1173
44.856	1167
44.864	1169
44.872	1178
44.88	1192
44.888	1209
44.896	1229
44.904	1249
44.912	1268
44.92	1284
44.928	1296.00000000001
44.936	1305
44.944	1312
44.952	1315
44.96	1315
44.968	1311
44.976	1304
44.984	1295
44.992	1284.99999999999
45	1273
45.008	1260
45.016	1245
45.024	1230
45.032	1214.99999999999
45.04	1201
45.048	1187
45.056	1173
45.064	1159
45.072	1146
45.08	1133
45.088	1120
45.096	1106.99999999999
45.104	1097
45.112	1088
45.12	1079
45.128	1071
45.136	1063
45.144	1055
45.152	1047
45.16	1039.99999999999
45.168	1032
45.176	1024
45.184	1016
45.192	1008
45.2	1001
45.208	995
45.216	988
45.224	978.999999999992
45.232	970
45.24	961
45.248	954
45.256	952
45.264	957
45.272	972
45.28	1004
45.288	1065.00000000006
45.296	1152
45.304	1260
45.312	1394
45.32	1548
45.328	1713
45.336	1881
45.344	2042
45.352	2186.00000000012
45.36	2313
45.368	2420
45.376	2500
45.384	2551
45.392	2580
45.4	2590
45.408	2580
45.416	2551.99999999997
45.424	2511
45.432	2462
45.44	2404
45.448	2339
45.456	2271
45.464	2200
45.472	2123
45.48	2041.99999999993
45.488	1956
45.496	1868
45.504	1780
45.512	1693
45.52	1609
45.528	1529
45.536	1456
45.544	1390.99999999995
45.552	1335
45.56	1289
45.568	1252
45.576	1225
45.584	1210
45.592	1202
45.6	1202
45.608	1208.00000000001
45.616	1219
45.624	1235
45.632	1253
45.64	1271
45.648	1289
45.656	1306
45.664	1319
45.672	1328.00000000001
45.68	1334
45.688	1338
45.696	1337
45.704	1333
45.712	1327
45.72	1319
45.728	1310
45.736	1298.99999999999
45.744	1287
45.752	1275
45.76	1262
45.768	1248
45.776	1234
45.784	1220
45.792	1207
45.8	1193.99999999999
45.808	1181
45.816	1170
45.824	1159
45.832	1150
45.84	1140
45.848	1130
45.856	1121
45.864	1112.99999999999
45.872	1104
45.88	1094
45.888	1086
45.896	1078
45.904	1070
45.912	1063
45.92	1056
45.928	1047.99999999999
45.936	1041
45.944	1035
45.952	1028
45.96	1019
45.968	1010
45.976	1001
45.984	993
45.992	989
46	991
46.008	1002
46.016	1030
46.024	1085
46.032	1164.00000000008
46.04	1264
46.048	1389
46.056	1535.00000000014
46.064	1694
46.072	1855
46.08	2013
46.088	2156
46.096	2281.0000000001
46.104	2388
46.112	2469
46.12	2523
46.128	2555
46.136	2569
46.144	2563
46.152	2539
46.16	2501.99999999996
46.168	2457
46.176	2404
46.184	2343
46.192	2280
46.2	2213
46.208	2141
46.216	2065
46.224	1985.99999999993
46.232	1904
46.24	1821
46.248	1738
46.256	1656
46.264	1578
46.272	1505
46.28	1440
46.288	1382.99999999995
46.296	1336
46.304	1299
46.312	1274
46.32	1257
46.328	1249
46.336	1249
46.344	1255
46.352	1267.00000000001
46.36	1282
46.368	1298
46.376	1316
46.384	1334
46.392	1350
46.4	1363
46.408	1372
46.416	1377
46.424	1381
46.432	1383
46.44	1383
46.448	1379
46.456	1372
46.464	1364
46.472	1354
46.48	1341.99999999999
46.488	1329
46.496	1316
46.504	1302
46.512	1289
46.52	1276
46.528	1262
46.536	1250
46.544	1237.99999999999
46.552	1227
46.56	1218
46.568	1208
46.576	1199
46.584	1192
46.592	1184
46.6	1175
46.608	1166.99999999999
46.616	1159
46.624	1151
46.632	1144
46.64	1136
46.648	1128
46.656	1120
46.664	1112
46.672	1103.99999999999
46.68	1097
46.688	1091
46.696	1083
46.704	1075
46.712	1068
46.72	1060
46.728	1055
46.736	1054
46.744	1060
46.752	1083
46.76	1132
46.768	1203
46.776	1296
46.784	1416
46.792	1560
46.8	1719.00000000014
46.808	1883
46.816	2044
46.824	2193
46.832	2328
46.84	2444
46.848	2535
46.856	2598
46.864	2638.00000000002
46.872	2658
46.88	2657
46.888	2639
46.896	2606
46.904	2564
46.912	2514
46.92	2456
46.928	2393.99999999994
46.936	2329
46.944	2259
46.952	2183
46.96	2104
46.968	2022
46.976	1938
46.984	1854
46.992	1770.99999999993
47	1692
47.008	1617
47.016	1549
47.024	1489
47.032	1437.99999999996
47.04	1396
47.048	1365
47.056	1344.99999999999
47.064	1333
47.072	1328
47.08	1330
47.088	1339
47.096	1352.00000000001
47.104	1368
47.112	1386
47.12	1403
47.128	1419
47.136	1438
47.144	1446
47.152	1452
47.16	1456
47.168	1453
47.176	1448
47.184	1432
47.192	1422
47.2	1411
47.208	1384
47.216	1369
47.224	1354.99999999999
47.232	1335
47.24	1323
47.248	1312
47.256	1301
47.264	1291
47.272	1281
47.28	1271
47.288	1260.99999999999
47.296	1251
47.304	1242
47.312	1233
47.32	1225
47.328	1217
47.336	1209
47.344	1201
47.352	1192.99999999999
47.36	1185
47.368	1177
47.376	1170
47.384	1163
47.392	1157
47.4	1150
47.408	1141
47.416	1131.99999999999
47.424	1122
47.432	1113
47.44	1107
47.448	1108
47.456	1121
47.464	1155
47.472	1208
47.48	1282.00000000008
47.488	1386
47.496	1519
47.504	1672
47.512	1833
47.52	1999
47.528	2158
47.536	2306
47.544	2440.00000000011
47.552	2549
47.56	2629
47.568	2686
47.576	2723
47.584	2737
47.592	2729
47.6	2706
47.608	2671.99999999997
47.616	2627
47.624	2573
47.632	2513
47.64	2450
47.648	2382
47.656	2308
47.664	2230
47.672	2149.99999999993
47.68	2067
47.688	1983
47.696	1898
47.704	1814
47.712	1734
47.72	1660
47.728	1593
47.736	1533.99999999995
47.744	1485
47.752	1448
47.76	1420
47.768	1401
47.776	1392
47.784	1391
47.792	1398
47.8	1409.00000000001
47.808	1424
47.816	1441
47.824	1460
47.832	1477
47.84	1492
47.848	1504
47.856	1515
47.864	1523
47.872	1526
47.88	1525
47.888	1521
47.896	1515
47.904	1506
47.912	1494
47.92	1482
47.928	1469.99999999999
47.936	1457
47.944	1443
47.952	1430
47.96	1416
47.968	1400
47.976	1386
47.984	1374
47.992	1361.99999999999
48	1350
48.008	1339
48.016	1329
48.024	1319
48.032	1309.99999999999
48.04	1301
48.048	1293
48.056	1284.99999999999
48.064	1278
48.072	1271
48.08	1264
48.088	1256
48.096	1248.99999999999
48.104	1242
48.112	1234
48.12	1226.99999999999
48.128	1220
48.136	1211
48.144	1203
48.152	1196
48.16	1186.99999999999
48.168	1178
48.176	1171
48.184	1169
48.192	1174
48.2	1196
48.208	1236
48.216	1298
48.224	1389.00000000009
48.232	1509
48.24	1652
48.248	1809
48.256	1977
48.264	2143
48.272	2302
48.28	2449
48.288	2575.0000000001
48.296	2673
48.304	2748
48.312	2801
48.32	2830
48.328	2835
48.336	2822
48.344	2796
48.352	2756.99999999996
48.36	2707
48.368	2650
48.376	2589
48.384	2523
48.392	2450
48.4	2373
48.408	2293
48.416	2207.99999999992
48.424	2120
48.432	2031
48.44	1943
48.448	1857
48.456	1776
48.464	1702
48.472	1636
48.48	1578.99999999995
48.488	1533
48.496	1497
48.504	1471
48.512	1456
48.52	1450
48.528	1450
48.536	1456
48.544	1469.00000000001
48.552	1486
48.56	1504
48.568	1522
48.576	1539
48.584	1554
48.592	1566
48.6	1576
48.608	1582
48.616	1584
48.624	1583
48.632	1579
48.64	1571
48.648	1561
48.656	1550
48.664	1537
48.672	1522.99999999999
48.68	1508
48.688	1493
48.696	1479
48.704	1464
48.712	1449
48.72	1435
48.728	1421
48.736	1406.99999999999
48.744	1394
48.752	1382
48.76	1370
48.768	1358
48.776	1347
48.784	1338
48.792	1329
48.8	1319.99999999999
48.808	1310
48.816	1301
48.824	1293
48.832	1285
48.84	1276
48.848	1266
48.856	1257
48.864	1248.99999999999
48.872	1241
48.88	1233
48.888	1225
48.896	1216
48.904	1206
48.912	1196
48.92	1187
48.928	1184
48.936	1193
48.944	1217
48.952	1260
48.96	1329
48.968	1430
48.976	1558
48.984	1706
48.992	1872.00000000015
49	2047
49.008	2222
49.016	2388
49.024	2539
49.032	2666.0000000001
49.04	2769
49.048	2851
49.056	2906.00000000003
49.064	2932
49.072	2936
49.08	2923
49.088	2893
49.096	2848.99999999996
49.104	2796
49.112	2737
49.12	2671.99999999994
49.128	2599
49.136	2522
49.144	2441
49.152	2356
49.16	2264.99999999992
49.168	2172
49.176	2079
49.184	1988
49.192	1899
49.2	1815
49.208	1737
49.216	1668
49.224	1609.99999999995
49.232	1561
49.24	1523
49.248	1497
49.256	1481
49.264	1474
49.272	1475
49.28	1484
49.288	1496.00000000001
49.296	1511
49.304	1529
49.312	1546
49.32	1560
49.328	1573
49.336	1584
49.344	1591
49.352	1596
49.36	1597
49.368	1596
49.376	1591
49.384	1584
49.392	1575
49.4	1566
49.408	1556
49.416	1543.99999999999
49.424	1530
49.432	1516
49.44	1501
49.448	1484
49.456	1466
49.464	1450
49.472	1435
49.48	1419.99999999999
49.488	1405
49.496	1391
49.504	1378
49.512	1366
49.52	1354
49.528	1342
49.536	1331
49.544	1320.99999999999
49.552	1311
49.56	1301
49.568	1291
49.576	1282
49.584	1272
49.592	1261
49.6	1251
49.608	1242.99999999999
49.616	1235
49.624	1225
49.632	1215
49.64	1204
49.648	1192
49.656	1181
49.664	1172
49.672	1170
49.68	1177
49.688	1198
49.696	1241
49.704	1315
49.712	1415
49.72	1538
49.728	1687
49.736	1856.00000000015
49.744	2035
49.752	2217
49.76	2391
49.768	2544
49.776	2677
49.784	2790
49.792	2874
49.8	2928.00000000003
49.808	2957
49.816	2966
49.824	2953
49.832	2922
49.84	2877
49.848	2824
49.856	2761
49.864	2689.99999999993
49.872	2613
49.88	2533
49.888	2447
49.896	2354
49.904	2258
49.912	2161
49.92	2064
49.928	1968.99999999992
49.936	1877
49.944	1789
49.952	1708
49.96	1638
49.968	1579
49.976	1530
49.984	1491
49.992	1464.99999999998
50	1450
50.008	1443
50.016	1446
50.024	1456
50.032	1471.00000000001
50.04	1489
50.048	1508
50.056	1527.00000000002
50.064	1546
50.072	1562
50.08	1575
50.088	1584
50.096	1590
50.104	1594
50.112	1593
50.12	1589
50.128	1582
50.136	1573
50.144	1563
50.152	1549
50.16	1532.99999999999
50.168	1517
50.176	1501
50.184	1484
50.192	1467
50.2	1451
50.208	1435
50.216	1420
50.224	1404.99999999999
50.232	1392
50.24	1379
50.248	1367
50.256	1356
50.264	1345
50.272	1333
50.28	1321
50.288	1311.99999999999
50.296	1303
50.304	1294
50.312	1284
50.32	1274
50.328	1264
50.336	1254
50.344	1244
50.352	1233.99999999999
50.36	1225
50.368	1217
50.376	1208
50.384	1198
50.392	1189
50.4	1180
50.408	1172
50.416	1169
50.424	1174
50.432	1192
50.44	1236
50.448	1306
50.456	1401
50.464	1527
50.472	1680
50.48	1852.00000000016
50.488	2035
50.496	2221
50.504	2397
50.512	2560
50.52	2705
50.528	2825
50.536	2913
50.544	2974.00000000004
50.552	3013
50.56	3025
50.568	3011
50.576	2980
50.584	2937
50.592	2883
50.6	2818
50.608	2745.99999999993
50.616	2668
50.624	2583
50.632	2493
50.64	2398
50.648	2299
50.656	2198
50.664	2096
50.672	1994.99999999991
50.68	1897
50.688	1805
50.696	1722
50.704	1647
50.712	1583
50.72	1530
50.728	1489
50.736	1460.99999999998
50.744	1442
50.752	1434
50.76	1436
50.768	1445
50.776	1460
50.784	1478
50.792	1498
50.8	1518.00000000002
50.808	1537
50.816	1554
50.824	1567
50.832	1577
50.84	1583
50.848	1586
50.856	1585
50.864	1581
50.872	1574
50.88	1563
50.888	1550
50.896	1535
50.904	1520
50.912	1504
50.92	1487
50.928	1468.99999999998
50.936	1451
50.944	1434
50.952	1417
50.96	1401
50.968	1386
50.976	1371
50.984	1357
50.992	1342.99999999999
51	1330
51.008	1318
51.016	1306
51.024	1296
51.032	1286.99999999999
51.04	1278
51.048	1268
51.056	1257.99999999999
51.064	1249
51.072	1240
51.08	1230
51.088	1221
51.096	1211.99999999999
51.104	1202
51.112	1193
51.12	1184.99999999999
51.128	1176
51.136	1165
51.144	1156
51.152	1149
51.16	1147
51.168	1156
51.176	1186
51.184	1237.00000000005
51.192	1312
51.2	1419
51.208	1561
51.216	1728
51.224	1910.00000000017
51.232	2104
51.24	2296
51.248	2479
51.256	2649
51.264	2795
51.272	2908
51.28	2993
51.288	3054.00000000004
51.296	3084
51.304	3086
51.312	3067
51.32	3032
51.328	2981
51.336	2919
51.344	2848
51.352	2770.99999999993
51.36	2689
51.368	2600
51.376	2505
51.384	2407
51.392	2305
51.4	2200
51.408	2094
51.416	1989.99999999991
51.424	1890
51.432	1798
51.44	1714
51.448	1639
51.456	1577
51.464	1527
51.472	1488
51.48	1459.99999999998
51.488	1444
51.496	1440
51.504	1445
51.512	1456
51.52	1471
51.528	1490
51.536	1510
51.544	1530.00000000002
51.552	1549
51.56	1565
51.568	1578
51.576	1588
51.584	1594
51.592	1595
51.6	1593
51.608	1587.99999999999
51.616	1578
51.624	1565
51.632	1552
51.64	1538
51.648	1523
51.656	1506
51.664	1486
51.672	1466.99999999998
51.68	1450
51.688	1432
51.696	1414
51.704	1397
51.712	1381
51.72	1366
51.728	1352
51.736	1337.99999999999
51.744	1323
51.752	1311
51.76	1302
51.768	1291
51.776	1281
51.784	1272
51.792	1262
51.8	1251.99999999999
51.808	1242
51.816	1233
51.824	1225
51.832	1217
51.84	1209
51.848	1201
51.856	1193
51.864	1183.99999999999
51.872	1174
51.88	1164
51.888	1154
51.896	1146
51.904	1145
51.912	1161
51.92	1193
51.928	1246.00000000006
51.936	1331
51.944	1453
51.952	1604
51.96	1776
51.968	1968
51.976	2168
51.984	2366
51.992	2554.00000000016
52	2722
52.008	2861
52.016	2975
52.024	3063
52.032	3118.00000000003
52.04	3140
52.048	3138
52.056	3116.99999999998
52.064	3078
52.072	3023
52.08	2958
52.088	2884
52.096	2801.99999999992
52.104	2713
52.112	2620
52.12	2522.99999999991
52.128	2420
52.136	2311
52.144	2201
52.152	2092
52.16	1984.99999999991
52.168	1884
52.176	1788
52.184	1700.99999999993
52.192	1626
52.2	1563
52.208	1513
52.216	1474
52.224	1447.99999999998
52.232	1435
52.24	1432
52.248	1437
52.256	1451
52.264	1470
52.272	1491
52.28	1513
52.288	1535.00000000002
52.296	1555
52.304	1572
52.312	1585
52.32	1594
52.328	1598
52.336	1599
52.344	1597
52.352	1589.99999999999
52.36	1580
52.368	1568
52.376	1554
52.384	1538
52.392	1520
52.4	1501
52.408	1483
52.416	1463.99999999998
52.424	1443
52.432	1424
52.44	1407
52.448	1392
52.456	1376
52.464	1360
52.472	1345
52.48	1331.99999999999
52.488	1319
52.496	1307
52.504	1295
52.512	1284
52.52	1273
52.528	1262
52.536	1251
52.544	1241.99999999999
52.552	1232
52.56	1223
52.568	1215
52.576	1206
52.584	1196
52.592	1186
52.6	1177
52.608	1167.99999999999
52.616	1157
52.624	1146
52.632	1136
52.64	1130
52.648	1134
52.656	1150
52.664	1182
52.672	1240.00000000006
52.68	1335
52.688	1462
52.696	1613
52.704	1793
52.712	1991
52.72	2197
52.728	2400
52.736	2589.00000000016
52.744	2755
52.752	2897
52.76	3013
52.768	3096
52.776	3145
52.784	3166
52.792	3163
52.8	3137.99999999997
52.808	3093
52.816	3036
52.824	2969
52.832	2893
52.84	2808
52.848	2716
52.856	2620
52.864	2518.99999999991
52.872	2413
52.88	2303
52.888	2192
52.896	2080
52.904	1971
52.912	1868
52.92	1771
52.928	1683.99999999993
52.936	1608
52.944	1544
52.952	1491
52.96	1453
52.968	1430
52.976	1416
52.984	1412
52.992	1418.00000000001
53	1431
53.008	1449
53.016	1469
53.024	1491
53.032	1512.00000000002
53.04	1531
53.048	1549
53.056	1563.00000000001
53.064	1572
53.072	1576
53.08	1577
53.088	1574
53.096	1565.99999999999
53.104	1557
53.112	1546
53.12	1530.99999999999
53.128	1515
53.136	1497
53.144	1478
53.152	1459
53.16	1440.99999999998
53.168	1422
53.176	1403
53.184	1384.99999999998
53.192	1366
53.2	1347
53.208	1331
53.216	1317
53.224	1302.99999999999
53.232	1290
53.24	1278
53.248	1265.99999999999
53.256	1255
53.264	1246
53.272	1236
53.28	1226
53.288	1216.99999999999
53.296	1208
53.304	1198
53.312	1188
53.32	1178
53.328	1169
53.336	1162
53.344	1154
53.352	1144.99999999999
53.36	1136
53.368	1125
53.376	1116
53.384	1112
53.392	1115
53.4	1131
53.408	1169
53.416	1239.00000000007
53.424	1338
53.432	1465
53.44	1626
53.448	1812
53.456	2014
53.464	2222
53.472	2427
53.48	2615.00000000016
53.488	2782
53.496	2925
53.504	3037
53.512	3113
53.52	3158
53.528	3178
53.536	3172
53.544	3139.99999999997
53.552	3091
53.56	3032
53.568	2961
53.576	2881
53.584	2794
53.592	2702
53.6	2604
53.608	2498.9999999999
53.616	2390
53.624	2278
53.632	2164
53.64	2051
53.648	1942
53.656	1837
53.664	1740
53.672	1653.99999999993
53.68	1579
53.688	1516
53.696	1466
53.704	1430
53.712	1408
53.72	1397
53.728	1397
53.736	1407.00000000001
53.744	1424
53.752	1445
53.76	1469
53.768	1493
53.776	1517
53.784	1539
53.792	1557
53.8	1570.00000000001
53.808	1579
53.816	1585
53.824	1586
53.832	1582
53.84	1574
53.848	1563
53.856	1550
53.864	1532.99999999998
53.872	1515
53.88	1496
53.888	1475
53.896	1455
53.904	1435
53.912	1415
53.92	1396
53.928	1376.99999999998
53.936	1359
53.944	1343
53.952	1328
53.96	1313
53.968	1299
53.976	1285
53.984	1274
53.992	1262.99999999999
54	1251
54.008	1241
54.016	1232
54.024	1221
54.032	1210.99999999999
54.04	1202
54.048	1193
54.056	1184.99999999999
54.064	1178
54.072	1172
54.08	1166
54.088	1158
54.096	1149.99999999999
54.104	1141
54.112	1132
54.12	1127
54.128	1126
54.136	1133
54.144	1158
54.152	1211
54.16	1292.00000000008
54.168	1399
54.176	1543
54.184	1720.00000000017
54.192	1918
54.2	2127
54.208	2339
54.216	2540
54.224	2725.00000000015
54.232	2889
54.24	3022
54.248	3116.00000000007
54.256	3179
54.264	3217
54.272	3224
54.28	3202
54.288	3160.99999999996
54.296	3108
54.304	3041
54.312	2964
54.32	2880
54.328	2790
54.336	2693
54.344	2591
54.352	2483.9999999999
54.36	2373
54.368	2260
54.376	2145
54.384	2032
54.392	1922
54.4	1818
54.408	1725
54.416	1642.99999999993
54.424	1570
54.432	1510
54.44	1466
54.448	1434
54.456	1413
54.464	1405
54.472	1407
54.48	1416.00000000001
54.488	1430
54.496	1450
54.504	1472
54.512	1494
54.52	1515
54.528	1534
54.536	1549
54.544	1560.00000000001
54.552	1566
54.56	1568
54.568	1566
54.576	1560
54.584	1551
54.592	1540
54.6	1525
54.608	1507.99999999998
54.616	1490
54.624	1472
54.632	1453
54.64	1434
54.648	1413
54.656	1393
54.664	1374
54.672	1353.99999999998
54.68	1336
54.688	1320
54.696	1304
54.704	1289
54.712	1277
54.72	1266
54.728	1253
54.736	1240.99999999999
54.744	1230
54.752	1219
54.76	1210
54.768	1200
54.776	1190
54.784	1180
54.792	1169
54.8	1158.99999999999
54.808	1150
54.816	1141
54.824	1132
54.832	1122
54.84	1113
54.848	1104
54.856	1095
54.864	1088
54.872	1085
54.88	1095
54.888	1129
54.896	1187
54.904	1269
54.912	1386
54.92	1539
54.928	1720.00000000017
54.936	1917
54.944	2125
54.952	2331
54.96	2529
54.968	2711
54.976	2866
54.984	2985
54.992	3073.00000000006
55	3134
55.008	3162
55.016	3159
55.024	3134
55.032	3092.99999999996
55.04	3037
55.048	2967
55.056	2887.99999999993
55.064	2803
55.072	2712
55.08	2612
55.088	2507
55.096	2399.9999999999
55.104	2288
55.112	2173
55.12	2057.9999999999
55.128	1944
55.136	1836
55.144	1736
55.152	1645
55.16	1565.99999999993
55.168	1498
55.176	1444
55.184	1402.99999999997
55.192	1375
55.2	1360
55.208	1355
55.216	1360
55.224	1371.00000000001
55.232	1389
55.24	1411
55.248	1434.00000000002
55.256	1456
55.264	1477
55.272	1494
55.28	1507
55.288	1518.00000000001
55.296	1522
55.304	1521
55.312	1517
55.32	1510
55.328	1499
55.336	1484
55.344	1465
55.352	1445.99999999998
55.36	1426
55.368	1407
55.376	1389
55.384	1371
55.392	1353
55.4	1335
55.408	1318
55.416	1301.99999999999
55.424	1288
55.432	1275
55.44	1263
55.448	1252
55.456	1240
55.464	1227
55.472	1215
55.48	1203.99999999999
55.488	1193
55.496	1182
55.504	1171
55.512	1161
55.52	1150
55.528	1139
55.536	1130
55.544	1120.99999999999
55.552	1113
55.56	1104
55.568	1094
55.576	1085
55.584	1076
55.592	1065
55.6	1055
55.608	1047
55.616	1045
55.624	1059
55.632	1091
55.64	1145
55.648	1232
55.656	1357
55.664	1513
55.672	1691.00000000017
55.68	1890
55.688	2096
55.696	2301
55.704	2498
55.712	2674
55.72	2819
55.728	2936
55.736	3026.00000000006
55.744	3082
55.752	3103
55.76	3099
55.768	3076
55.776	3033
55.784	2974
55.792	2903
55.8	2825.99999999993
55.808	2741
55.816	2647
55.824	2546
55.832	2440
55.84	2329
55.848	2215
55.856	2099
55.864	1982.9999999999
55.872	1870
55.88	1763
55.888	1663
55.896	1572
55.904	1493
55.912	1429
55.92	1379
55.928	1340.99999999997
55.936	1316
55.944	1304
55.952	1303
55.96	1311
55.968	1327
55.976	1348
55.984	1372
55.992	1399.00000000002
56	1425
56.008	1447
56.016	1466
56.024	1481
56.032	1491.00000000001
56.04	1495
56.048	1495
56.056	1492
56.064	1486
56.072	1477
56.08	1465
56.088	1451
56.096	1435.99999999999
56.104	1418
56.112	1398
56.12	1378.99999999998
56.128	1362
56.136	1343
56.144	1324
56.152	1306
56.16	1289.99999999999
56.168	1275
56.176	1261
56.184	1246.99999999999
56.192	1233
56.2	1221
56.208	1211
56.216	1201
56.224	1189.99999999999
56.232	1178
56.24	1167
56.248	1157.99999999999
56.256	1148
56.264	1138
56.272	1129
56.28	1122
56.288	1113.99999999999
56.296	1106
56.304	1099
56.312	1091.99999999999
56.32	1083
56.328	1073
56.336	1063
56.344	1054
56.352	1049
56.36	1058
56.368	1081
56.376	1124
56.384	1196
56.392	1306
56.4	1448
56.408	1615
56.416	1807.00000000018
56.424	2011
56.432	2220
56.44	2424
56.448	2611
56.456	2771
56.464	2905
56.472	3012
56.48	3083.00000000004
56.488	3120
56.496	3130
56.504	3118
56.512	3083
56.52	3029
56.528	2962
56.536	2886
56.544	2800.99999999992
56.552	2708
56.56	2609
56.568	2508
56.576	2401
56.584	2288
56.592	2170
56.6	2053
56.608	1938.9999999999
56.616	1829
56.624	1725
56.632	1630
56.64	1546
56.648	1475
56.656	1417
56.664	1371
56.672	1338.99999999998
56.68	1321
56.688	1315
56.696	1319
56.704	1332
56.712	1351
56.72	1374
56.728	1398
56.736	1422.00000000002
56.744	1444
56.752	1464
56.76	1481
56.768	1493
56.776	1499
56.784	1502
56.792	1502
56.8	1497.99999999999
56.808	1489
56.816	1478
56.824	1465
56.832	1450
56.84	1432
56.848	1414
56.856	1395
56.864	1375.99999999998
56.872	1357
56.88	1339
56.888	1321
56.896	1304
56.904	1287
56.912	1271
56.92	1256
56.928	1240.99999999999
56.936	1227
56.944	1214
56.952	1203
56.96	1193
56.968	1183
56.976	1174
56.984	1165
56.992	1156.99999999999
57	1148
57.008	1138
57.016	1128
57.024	1118
57.032	1108.99999999999
57.04	1102
57.048	1095
57.056	1086.99999999999
57.064	1077
57.072	1067
57.08	1059
57.088	1055
57.096	1061.00000000001
57.104	1079
57.112	1115
57.12	1180.00000000007
57.128	1281
57.136	1414
57.144	1573
57.152	1760
57.16	1962.00000000018
57.168	2171
57.176	2378
57.184	2570.00000000016
57.192	2736
57.2	2875
57.208	2989
57.216	3070
57.224	3113.00000000002
57.232	3128
57.24	3121
57.248	3090.99999999997
57.256	3039
57.264	2975
57.272	2904
57.28	2823
57.288	2732.99999999992
57.296	2636
57.304	2534
57.312	2426.9999999999
57.32	2315
57.328	2199
57.336	2084
57.344	1969
57.352	1857.9999999999
57.36	1753
57.368	1656
57.376	1569
57.384	1496
57.392	1434
57.4	1384
57.408	1337
57.416	1321.99999999999
57.424	1318
57.432	1328
57.44	1344
57.448	1365
57.456	1390
57.464	1427
57.472	1449
57.48	1467.00000000002
57.488	1493
57.496	1499
57.504	1501
57.512	1493
57.52	1483
57.528	1471
57.536	1450
57.544	1431.99999999998
57.552	1414
57.56	1396
57.568	1377
57.576	1358
57.584	1338
57.592	1319
57.6	1302
57.608	1284.99999999999
57.616	1269
57.624	1253
57.632	1238
57.64	1225
57.648	1214
57.656	1202
57.664	1192
57.672	1182.99999999999
57.68	1174
57.688	1164
57.696	1154
57.704	1145
57.712	1137
57.72	1129
57.728	1121
57.736	1112.99999999999
57.744	1105
57.752	1098
57.76	1090
57.768	1080
57.776	1070
57.784	1061
57.792	1054
57.8	1055
57.808	1068
57.816	1097
57.824	1153
57.832	1245
57.84	1370
57.848	1522
57.856	1704
57.864	1907.00000000019
57.872	2121
57.88	2333
57.888	2533
57.896	2709
57.904	2860
57.912	2984
57.92	3074
57.928	3128.00000000003
57.936	3152
57.944	3153
57.952	3130
57.96	3083
57.968	3022
57.976	2951
57.984	2871
57.992	2782.99999999992
58	2690
58.008	2591
58.016	2486
58.024	2374
58.032	2257.9999999999
58.04	2141
58.048	2024
58.056	1908.9999999999
58.064	1799
58.072	1696
58.08	1602
58.088	1521
58.096	1452.99999999994
58.104	1396
58.112	1354
58.12	1326.99999999998
58.128	1312
58.136	1307
58.144	1313
58.152	1327
58.16	1347.00000000002
58.168	1371
58.176	1397
58.184	1422.00000000002
58.192	1444
58.2	1464
58.208	1480
58.216	1490
58.224	1496
58.232	1498
58.24	1496
58.248	1489.99999999999
58.256	1480
58.264	1468
58.272	1453
58.28	1437
58.288	1419.99999999998
58.296	1401
58.304	1382
58.312	1361.99999999998
58.32	1343
58.328	1325
58.336	1307
58.344	1290
58.352	1272.99999999999
58.36	1258
58.368	1243
58.376	1230
58.384	1217
58.392	1204
58.4	1192
58.408	1182
58.416	1171.99999999999
58.424	1162
58.432	1153
58.44	1144
58.448	1134
58.456	1124
58.464	1115
58.472	1107
58.48	1097.99999999999
58.488	1089
58.496	1081
58.504	1072
58.512	1062
58.52	1052
58.528	1043
58.536	1041
58.544	1046.00000000001
58.552	1064
58.56	1106
58.568	1183
58.576	1291
58.584	1426
58.592	1594
58.6	1788
58.608	1998.00000000019
58.616	2212
58.624	2420
58.632	2609
58.64	2777
58.648	2919
58.656	3026
58.664	3095
58.672	3135.00000000002
58.68	3150
58.688	3137
58.696	3101
58.704	3048
58.712	2984
58.72	2909
58.728	2825
58.736	2734.99999999992
58.744	2639
58.752	2536
58.76	2426
58.768	2313
58.776	2199
58.784	2082
58.792	1965
58.8	1852.9999999999
58.808	1747
58.816	1650
58.824	1564
58.832	1488
58.84	1423
58.848	1374
58.856	1340
58.864	1317.99999999999
58.872	1307
58.88	1308
58.888	1318
58.896	1334
58.904	1355
58.912	1380
58.92	1403
58.928	1426.00000000002
58.936	1446
58.944	1463
58.952	1477
58.96	1486
58.968	1490
58.976	1489
58.984	1484
58.992	1474.99999999999
59	1464
59.008	1450
59.016	1434
59.024	1417
59.032	1399.99999999998
59.04	1381
59.048	1362
59.056	1341.99999999998
59.064	1323
59.072	1305
59.08	1287
59.088	1271
59.096	1255.99999999999
59.104	1240
59.112	1225
59.12	1211.99999999999
59.128	1199
59.136	1188
59.144	1177
59.152	1167
59.16	1156.99999999999
59.168	1147
59.176	1137
59.184	1127.99999999999
59.192	1118
59.2	1108
59.208	1100
59.216	1091
59.224	1082.99999999999
59.232	1075
59.24	1066
59.248	1056.99999999999
59.256	1049
59.264	1040
59.272	1032
59.28	1030
59.288	1038.00000000001
59.296	1065
59.304	1124
59.312	1211.00000000009
59.32	1327
59.328	1478
59.336	1660
59.344	1864
59.352	2077.00000000019
59.36	2290
59.368	2489
59.376	2672.00000000015
59.384	2832
59.392	2960
59.4	3051
59.408	3111
59.416	3144
59.424	3146
59.432	3121
59.44	3077
59.448	3020
59.456	2951
59.464	2871
59.472	2783
59.48	2690.99999999992
59.488	2593
59.496	2487
59.504	2377
59.512	2265
59.52	2149
59.528	2033
59.536	1918
59.544	1805.9999999999
59.552	1703
59.56	1612
59.568	1530
59.576	1458
59.584	1399
59.592	1355
59.6	1324
59.608	1303.99999999999
59.616	1296
59.624	1299
59.632	1310
59.64	1326
59.648	1347
59.656	1371
59.664	1396
59.672	1418.00000000002
59.68	1437
59.688	1453
59.696	1466
59.704	1475
59.712	1479
59.72	1478
59.728	1472
59.736	1462.99999999999
59.744	1452
59.752	1439
59.76	1426
59.768	1409
59.776	1391
59.784	1373
59.792	1355
59.8	1337.99999999998
59.808	1320
59.816	1302
59.824	1285
59.832	1269
59.84	1253
59.848	1237
59.856	1223
59.864	1210.99999999999
59.872	1200
59.88	1189
59.888	1178
59.896	1166
59.904	1155
59.912	1145
59.92	1135
59.928	1124.99999999999
59.936	1115
59.944	1105
59.952	1095
59.96	1086
59.968	1078
59.976	1071
59.984	1063
59.992	1053.99999999999
60	1044
60.008	1035
60.016	1029
60.024	1028
60.032	1040.00000000002
60.04	1078
60.048	1141
60.056	1231.00000000009
60.064	1357
60.072	1520
60.08	1710
60.088	1917
60.096	2135.00000000019
60.104	2348
60.112	2548
60.12	2730.00000000015
60.128	2883
60.136	3000
60.144	3086
60.152	3143
60.16	3168
60.168	3162
60.176	3133
60.184	3088.99999999995
60.192	3029
60.2	2956
60.208	2874
60.216	2787
60.224	2693.99999999991
60.232	2593
60.24	2488
60.248	2378.9999999999
60.256	2266
60.264	2149
60.272	2033
60.28	1919
60.288	1808.99999999991
60.296	1708
60.304	1615
60.312	1531.99999999993
60.32	1461
60.328	1406
60.336	1364
60.344	1333
60.352	1315.99999999999
60.36	1311
60.368	1316
60.376	1328.00000000001
60.384	1347
60.392	1370
60.4	1393
60.408	1416
60.416	1437.00000000002
60.424	1455
60.432	1469
60.44	1480
60.448	1486
60.456	1487
60.464	1485
60.472	1480
60.48	1470.99999999999
60.488	1459
60.496	1443
60.504	1425
60.512	1407
60.52	1388
60.528	1368
60.536	1348
60.544	1327.99999999998
60.552	1308
60.56	1289
60.568	1272
60.576	1254
60.584	1238
60.592	1224
60.6	1211
60.608	1198.99999999999
60.616	1187
60.624	1175
60.632	1164
60.64	1153
60.648	1144
60.656	1135
60.664	1126
60.672	1116.99999999999
60.68	1109
60.688	1100
60.696	1090
60.704	1081
60.712	1073
60.72	1066
60.728	1058
60.736	1047.99999999999
60.744	1038
60.752	1028
60.76	1020
60.768	1018
60.776	1031
60.784	1063
60.792	1117
60.8	1203.00000000009
60.808	1328
60.816	1484
60.824	1663
60.832	1866
60.84	2078
60.848	2290
60.856	2493
60.864	2676.00000000015
60.872	2828
60.88	2951
60.888	3046
60.896	3105
60.904	3129
60.912	3126
60.92	3103
60.928	3060.99999999996
60.936	3001
60.944	2930
60.952	2852
60.96	2765
60.968	2672
60.976	2574
60.984	2471
60.992	2362.9999999999
61	2250
61.008	2133
61.016	2016
61.024	1900
61.032	1788.9999999999
61.04	1685
61.048	1590
61.056	1506.99999999993
61.064	1438
61.072	1380
61.08	1334
61.088	1302
61.096	1283.99999999999
61.104	1278
61.112	1281
61.12	1294.00000000001
61.128	1313
61.136	1336
61.144	1361
61.152	1387
61.16	1410.00000000002
61.168	1429
61.176	1446
61.184	1458.00000000001
61.192	1465
61.2	1469
61.208	1468
61.216	1462
61.224	1451.99999999999
61.232	1438
61.24	1424
61.248	1407.99999999998
61.256	1389
61.264	1370
61.272	1350
61.28	1331
61.288	1311.99999999998
61.296	1291
61.304	1271
61.312	1250.99999999998
61.32	1232
61.328	1214
61.336	1198
61.344	1184
61.352	1170.99999999999
61.36	1160
61.368	1149
61.376	1139.99999999999
61.384	1132
61.392	1123
61.4	1116
61.408	1109
61.416	1100.99999999999
61.424	1093
61.432	1085
61.44	1078
61.448	1070
61.456	1062
61.464	1055
61.472	1047
61.48	1036.99999999999
61.488	1026
61.496	1015
61.504	1007
61.512	1006
61.52	1014
61.528	1037
61.536	1086
61.544	1170.00000000009
61.552	1285
61.56	1428
61.568	1601
61.576	1797
61.584	2005
61.592	2214
61.6	2413
61.608	2590.00000000015
61.616	2743
61.624	2872
61.632	2967
61.64	3026
61.648	3055
61.656	3061
61.664	3042
61.672	3000.99999999996
61.68	2946
61.688	2880
61.696	2804
61.704	2719
61.712	2627
61.72	2530
61.728	2427
61.736	2317.9999999999
61.744	2205
61.752	2091
61.76	1976
61.768	1862
61.776	1752
61.784	1649
61.792	1555
61.8	1472.99999999993
61.808	1403
61.816	1345
61.824	1301
61.832	1273
61.84	1258
61.848	1252
61.856	1256
61.864	1268.00000000001
61.872	1287
61.88	1311
61.888	1337
61.896	1362
61.904	1385
61.912	1407
61.92	1424
61.928	1435.00000000001
61.936	1444
61.944	1448
61.952	1447
61.96	1443
61.968	1435
61.976	1424
61.984	1409
61.992	1392.99999999999
62	1376
62.008	1357
62.016	1338
62.024	1318
62.032	1297.99999999998
62.04	1279
62.048	1262
62.056	1244.99999999999
62.064	1229
62.072	1215
62.08	1202
62.088	1188
62.096	1175.99999999999
62.104	1166
62.112	1156
62.12	1144.99999999999
62.128	1135
62.136	1126
62.144	1117
62.152	1109
62.16	1100.99999999999
62.168	1093
62.176	1085
62.184	1077.99999999999
62.192	1071
62.2	1065
62.208	1059
62.216	1050
62.224	1038.99999999999
62.232	1030
62.24	1021
62.248	1016
62.256	1016
62.264	1026
62.272	1055
62.28	1114
62.288	1200.00000000009
62.296	1314
62.304	1462
62.312	1640.00000000017
62.32	1837
62.328	2043
62.336	2250
62.344	2443
62.352	2619.00000000015
62.36	2773
62.368	2896
62.376	2982.00000000006
62.384	3037
62.392	3067
62.4	3068
62.408	3043
62.416	2999.99999999996
62.424	2944
62.432	2877
62.44	2798.99999999993
62.448	2713
62.456	2622
62.464	2524
62.472	2419
62.48	2308.9999999999
62.488	2196
62.496	2081
62.504	1967
62.512	1855
62.52	1747
62.528	1647
62.536	1558
62.544	1476.99999999993
62.552	1407
62.56	1351
62.568	1311
62.576	1285
62.584	1270
62.592	1267
62.6	1275
62.608	1290.00000000002
62.616	1310
62.624	1334
62.632	1359
62.64	1384
62.648	1406
62.656	1425
62.664	1441
62.672	1453.00000000001
62.68	1462
62.688	1466
62.696	1464
62.704	1458
62.712	1449
62.72	1437
62.728	1423
62.736	1407.99999999999
62.744	1391
62.752	1373
62.76	1354
62.768	1334
62.776	1314
62.784	1295
62.792	1277
62.8	1258.99999999998
62.808	1243
62.816	1229
62.824	1215
62.832	1202
62.84	1191
62.848	1181
62.856	1170
62.864	1159.99999999999
62.872	1151
62.88	1142
62.888	1132
62.896	1123
62.904	1116
62.912	1108
62.92	1101
62.928	1094.99999999999
62.936	1087
62.944	1079
62.952	1072
62.96	1063
62.968	1054
62.976	1045
62.984	1037
62.992	1031
63	1031
63.008	1043
63.016	1079
63.024	1139
63.032	1226.00000000009
63.04	1348
63.048	1505
63.056	1688.00000000017
63.064	1886
63.072	2094
63.08	2297
63.088	2490
63.096	2665.00000000014
63.104	2814
63.112	2927
63.12	3010.00000000006
63.128	3066
63.136	3091
63.144	3086
63.152	3057
63.16	3013.99999999996
63.168	2955
63.176	2883
63.184	2802.99999999993
63.192	2716
63.2	2621
63.208	2521
63.216	2416
63.224	2306.9999999999
63.232	2195
63.24	2081
63.248	1966.9999999999
63.256	1855
63.264	1748
63.272	1650
63.28	1562
63.288	1483.99999999994
63.296	1419
63.304	1369
63.312	1330.99999999997
63.32	1305
63.328	1292
63.336	1290
63.344	1297
63.352	1311.00000000001
63.36	1331
63.368	1354
63.376	1379.00000000002
63.384	1405
63.392	1426
63.4	1442
63.408	1456
63.416	1467.00000000001
63.424	1473
63.432	1474
63.44	1472
63.448	1466
63.456	1456
63.464	1444
63.472	1431
63.48	1416.99999999999
63.488	1401
63.496	1384
63.504	1365
63.512	1346
63.52	1327
63.528	1309
63.536	1292
63.544	1274.99999999998
63.552	1258
63.56	1242
63.568	1229
63.576	1217
63.584	1205
63.592	1194
63.6	1182
63.608	1170.99999999999
63.616	1161
63.624	1151
63.632	1142
63.64	1133
63.648	1124
63.656	1115
63.664	1108
63.672	1099.99999999999
63.68	1093
63.688	1086
63.696	1078
63.704	1071
63.712	1063
63.72	1053
63.728	1044
63.736	1039
63.744	1043
63.752	1066
63.76	1108
63.768	1173
63.776	1273
63.784	1410
63.792	1575
63.8	1761.00000000017
63.808	1963
63.816	2168
63.824	2369
63.832	2557
63.84	2721
63.848	2853
63.856	2956
63.864	3032.00000000005
63.872	3075
63.88	3086
63.888	3073
63.896	3043
63.904	2995
63.912	2932
63.92	2858
63.928	2777.99999999993
63.936	2690
63.944	2594
63.952	2494
63.96	2390
63.968	2280
63.976	2166
63.984	2050
63.992	1934.9999999999
64	1824
64.008	1719
64.016	1622
64.024	1533
64.032	1457
64.04	1396
64.048	1348
64.056	1312
64.064	1289.99999999998
64.072	1282
64.08	1284
64.088	1294.00000000002
64.096	1311
64.104	1332
64.112	1356
64.12	1382
64.128	1406
64.136	1427
64.144	1445
64.152	1459
64.16	1468
64.168	1471
64.176	1472
64.184	1469
64.192	1461.99999999998
64.2	1451
64.208	1438
64.216	1422.99999999997
64.224	1407
64.232	1389
64.24	1370
64.248	1350
64.256	1331
64.264	1313
64.272	1296
64.28	1280
64.288	1264
64.296	1248
64.304	1233
64.312	1220
64.32	1206.99999999998
64.328	1196
64.336	1185
64.344	1173.99999999998
64.352	1163
64.36	1154
64.368	1145
64.376	1137
64.384	1128
64.392	1119
64.4	1111
64.408	1103
64.416	1096
64.424	1088
64.432	1080
64.44	1072
64.448	1063.99999999998
64.456	1055
64.464	1045
64.472	1035.99999999999
64.48	1032
64.488	1043
64.496	1071
64.504	1119
64.512	1198
64.52	1313
64.528	1459
64.536	1629
64.544	1823
64.552	2029
64.56	2237
64.568	2437
64.576	2618.00000000029
64.584	2770
64.592	2896
64.6	2995
64.608	3061
64.616	3093
64.624	3097
64.632	3079
64.64	3040
64.648	2983
64.656	2915
64.664	2839
64.672	2755
64.68	2663
64.688	2566
64.696	2465
64.704	2357.99999999981
64.712	2246
64.72	2132
64.728	2017
64.736	1903
64.744	1794
64.752	1691
64.76	1597
64.768	1514
64.776	1443
64.784	1385
64.792	1340
64.8	1310
64.808	1294
64.816	1288
64.824	1291
64.832	1304.00000000003
64.84	1322
64.848	1344
64.856	1368
64.864	1391
64.872	1412
64.88	1431
64.888	1448
64.896	1460
64.904	1468
64.912	1471
64.92	1470
64.928	1464
64.936	1454
64.944	1442
64.952	1429
64.96	1414.99999999997
64.968	1399
64.976	1381
64.984	1362
64.992	1342
65	1322
65.008	1303
65.016	1286
65.024	1269
65.032	1253
65.04	1237
65.048	1222
65.056	1208
65.064	1194.99999999998
65.072	1183
65.08	1172
65.088	1160.99999999998
65.096	1151
65.104	1143
65.112	1135
65.12	1126
65.128	1116
65.136	1107
65.144	1100
65.152	1091
65.16	1083
65.168	1077
65.176	1070
65.184	1061
65.192	1051.99999999998
65.2	1041
65.208	1031
65.216	1024
65.224	1027
65.232	1043
65.24	1074
65.248	1130
65.256	1222
65.264	1346
65.272	1498
65.28	1679
65.288	1879
65.296	2088
65.304	2295
65.312	2490
65.32	2660.00000000028
65.328	2805
65.336	2923
65.344	3008.00000000011
65.352	3058
65.36	3079
65.368	3078
65.376	3053
65.384	3008
65.392	2949
65.4	2882
65.408	2804
65.416	2717
65.424	2625
65.432	2529
65.44	2427
65.448	2318.9999999998
65.456	2207
65.464	2093
65.472	1978.9999999998
65.48	1867
65.488	1758
65.496	1655
65.504	1563
65.512	1484
65.52	1416
65.528	1360
65.536	1318
65.544	1290
65.552	1275
65.56	1272
65.568	1278
65.576	1293.00000000003
65.584	1315
65.592	1338
65.6	1363
65.608	1389
65.616	1411
65.624	1430
65.632	1446
65.64	1457
65.648	1463
65.656	1466
65.664	1465
65.672	1460
65.68	1451
65.688	1439
65.696	1424
65.704	1406.99999999997
65.712	1390
65.72	1373
65.728	1356
65.736	1337
65.744	1319
65.752	1302
65.76	1284
65.768	1266
65.776	1251
65.784	1238
65.792	1224
65.8	1211
65.808	1200
65.816	1190
65.824	1180
65.832	1169.99999999998
65.84	1161
65.848	1153
65.856	1144
65.864	1133
65.872	1124
65.88	1117
65.888	1110
65.896	1101
65.904	1093
65.912	1085
65.92	1077
65.928	1068
65.936	1058
65.944	1048
65.952	1039
65.96	1038
65.968	1044
65.976	1064
65.984	1109
65.992	1189
66	1300
66.008	1437
66.016	1606
66.024	1799
66.032	2007
66.04	2217
66.048	2419
66.056	2601
66.064	2760.00000000026
66.072	2894
66.08	2996
66.088	3061.00000000008
66.096	3097
66.104	3108
66.112	3092
66.12	3055
66.128	3003
66.136	2940
66.144	2866
66.152	2782
66.16	2691
66.168	2596
66.176	2495
66.184	2388
66.192	2275.9999999998
66.2	2163
66.208	2049
66.216	1934.9999999998
66.224	1824
66.232	1718
66.24	1620
66.248	1534
66.256	1460
66.264	1397
66.272	1348
66.28	1314
66.288	1294
66.296	1285
66.304	1288
66.312	1300
66.32	1319.00000000004
66.328	1342
66.336	1367
66.344	1393.00000000004
66.352	1417
66.36	1439
66.368	1456
66.376	1467
66.384	1475
66.392	1479
66.4	1478
66.408	1472
66.416	1464
66.424	1454
66.432	1441
66.44	1426
66.448	1408.99999999997
66.456	1392
66.464	1373
66.472	1353.99999999997
66.48	1334
66.488	1315
66.496	1297
66.504	1279
66.512	1263
66.52	1248
66.528	1232
66.536	1218
66.544	1206
66.552	1194
66.56	1182
66.568	1170
66.576	1158.99999999998
66.584	1150
66.592	1141
66.6	1132
66.608	1122
66.616	1113
66.624	1105
66.632	1097
66.64	1089
66.648	1081
66.656	1073
66.664	1064
66.672	1054
66.68	1045
66.688	1036
66.696	1031
66.704	1033.00000000001
66.712	1044
66.72	1074
66.728	1135
66.736	1226
66.744	1344
66.752	1497
66.76	1680
66.768	1880
66.776	2088
66.784	2295
66.792	2487
66.8	2661
66.808	2814
66.816	2935
66.824	3019
66.832	3072.00000000006
66.84	3099
66.848	3098
66.856	3071
66.864	3027
66.872	2969
66.88	2899
66.888	2820
66.896	2734
66.904	2644
66.912	2547
66.92	2444
66.928	2336
66.936	2225
66.944	2111
66.952	1995
66.96	1880.9999999998
66.968	1772
66.976	1669
66.984	1578
66.992	1498
67	1428
67.008	1372
67.016	1332
67.024	1304
67.032	1287
67.04	1283
67.048	1290
67.056	1305
67.064	1325.00000000004
67.072	1348
67.08	1372
67.088	1396.00000000004
67.096	1419
67.104	1438
67.112	1451
67.12	1462
67.128	1468
67.136	1470
67.144	1468
67.152	1462
67.16	1454
67.168	1443
67.176	1429
67.184	1413
67.192	1395.99999999997
67.2	1377
67.208	1358
67.216	1337.99999999996
67.224	1318
67.232	1298
67.24	1279
67.248	1262
67.256	1245
67.264	1230
67.272	1216
67.28	1202
67.288	1188
67.296	1175
67.304	1163
67.312	1152
67.32	1140.99999999998
67.328	1131
67.336	1120
67.344	1107.99999999998
67.352	1097
67.36	1087
67.368	1078
67.376	1069
67.384	1062
67.392	1055
67.4	1048
67.408	1042
67.416	1037
67.424	1031
67.432	1025
67.44	1021
67.448	1023.00000000001
67.456	1039
67.464	1081
67.472	1147.00000000014
67.48	1237
67.488	1361
67.496	1520
67.504	1703
67.512	1900
67.52	2103
67.528	2300
67.536	2485
67.544	2654
67.552	2794
67.56	2898
67.568	2973
67.576	3023.00000000005
67.584	3042
67.592	3033
67.6	3004
67.608	2959
67.616	2900
67.624	2828
67.632	2748
67.64	2662
67.648	2570
67.656	2470
67.664	2364
67.672	2255
67.68	2086
67.688	1972
67.696	1859
67.704	1648.99999999977
67.712	1558
67.72	1477
67.728	1352
67.736	1310
67.744	1281
67.752	1258
67.76	1263
67.768	1276
67.776	1306
67.784	1329
67.792	1354
67.8	1379
67.808	1402
67.816	1419
67.824	1432
67.832	1440.00000000001
67.84	1444
67.848	1443
67.856	1439
67.864	1434
67.872	1425
67.88	1413
67.888	1399
67.896	1385
67.904	1369
67.912	1350
67.92	1330
67.928	1311
67.936	1293
67.944	1275
67.952	1258
67.96	1240.99999999997
67.968	1226
67.976	1212
67.984	1198
67.992	1185
68	1174
68.008	1162
68.016	1151
68.024	1141
68.032	1130
68.04	1119
68.048	1111
68.056	1104
68.064	1094.99999999998
68.072	1086
68.08	1078
68.088	1070.99999999999
68.096	1063
68.104	1055
68.112	1048
68.12	1040
68.128	1032
68.136	1025
68.144	1019
68.152	1016
68.16	1024
68.168	1055
68.176	1109
68.184	1187
68.192	1299.00000000023
68.2	1446
68.208	1619
68.216	1810.00000000035
68.224	2011
68.232	2210
68.24	2401
68.248	2578
68.256	2729
68.264	2848
68.272	2936
68.28	2997
68.288	3028
68.296	3029
68.304	3009
68.312	2972
68.32	2916.99999999989
68.328	2850
68.336	2773
68.344	2689.99999999985
68.352	2599
68.36	2501
68.368	2398
68.376	2290
68.384	2179
68.392	2066
68.4	1951
68.408	1838
68.416	1729
68.424	1630
68.432	1538
68.44	1456
68.448	1387.9999999999
68.456	1336
68.464	1297
68.472	1268.99999999997
68.48	1255
68.488	1254
68.496	1261
68.504	1276
68.512	1296
68.52	1320
68.528	1346
68.536	1371
68.544	1395
68.552	1415
68.56	1431
68.568	1443
68.576	1449
68.584	1450
68.592	1447
68.6	1441.99999999999
68.608	1433
68.616	1422
68.624	1408
68.632	1392
68.64	1376
68.648	1358
68.656	1338
68.664	1319
68.672	1301
68.68	1282
68.688	1263
68.696	1247
68.704	1231.99999999997
68.712	1217
68.72	1203
68.728	1190
68.736	1178
68.744	1166
68.752	1155
68.76	1147
68.768	1139
68.776	1130
68.784	1121
68.792	1113
68.8	1105
68.808	1097
68.816	1090
68.824	1083
68.832	1075.99999999999
68.84	1068
68.848	1061
68.856	1054
68.864	1044
68.872	1034
68.88	1025
68.888	1020
68.896	1022
68.904	1042
68.912	1081
68.92	1143
68.928	1239
68.936	1372
68.944	1532
68.952	1713
68.96	1913.00000000036
68.968	2116
68.976	2315
68.984	2504
68.992	2670
69	2804
69.008	2909
69.016	2989
69.024	3036
69.032	3050
69.04	3042
69.048	3016
69.056	2971
69.064	2909.99999999988
69.072	2837
69.08	2759
69.088	2672.99999999984
69.096	2578
69.104	2478
69.112	2375
69.12	2267
69.128	2154
69.136	2039
69.144	1926
69.152	1815
69.16	1711
69.168	1614
69.176	1527
69.184	1454
69.192	1392.9999999999
69.2	1345
69.208	1308
69.216	1283.99999999998
69.224	1275
69.232	1276
69.24	1284
69.248	1300
69.256	1321
69.264	1345
69.272	1369
69.28	1392
69.288	1412
69.296	1429
69.304	1443
69.312	1453
69.32	1457
69.328	1456
69.336	1451
69.344	1443.99999999999
69.352	1434
69.36	1422
69.368	1409
69.376	1394
69.384	1376
69.392	1358
69.4	1340
69.408	1321
69.416	1302
69.424	1283
69.432	1266
69.44	1250
69.448	1234.99999999997
69.456	1221
69.464	1208
69.472	1194.99999999998
69.48	1184
