Time	PPG1
0	1454
0.008	1444
0.016	1431
0.024	1418
0.032	1403
0.04	1387
0.048	1370
0.056	1352
0.064	1334
0.072	1317
0.08	1301
0.088	1284
0.096	1268
0.104	1254
0.112	1240
0.12	1227
0.128	1215
0.136	1203
0.144	1193
0.152	1185
0.16	1176
0.168	1166
0.176	1157
0.184	1150
0.192	1143
0.2	1136
0.208	1128
0.216	1120
0.224	1113
0.232	1107
0.24	1100
0.248	1092
0.256	1083
0.264	1073
0.272	1063
0.28	1055
0.288	1054
0.296	1069
0.304	1101
0.312	1154
0.32	1238
0.328	1360
0.336	1512
0.344	1685
0.352	1879
0.36	2081
0.368	2283
0.376	2476
0.384	2647
0.392	2787
0.4	2899
0.408	2984
0.416	3035
0.424	3053
0.432	3046
0.44	3021
0.448	2978
0.456	2919
0.464	2851
0.472	2776
0.48	2693
0.488	2603
0.496	2507
0.504	2407
0.512	2302
0.52	2192
0.528	2081
0.536	1971
0.544	1862
0.552	1758
0.56	1661
0.568	1572
0.576	1494
0.584	1431
0.592	1381
0.6	1342
0.608	1315
0.616	1302
0.624	1299
0.632	1304
0.64	1316
0.648	1334
0.656	1355
0.664	1378
0.672	1400
0.68	1419
0.688	1435
0.696	1448
0.704	1457
0.712	1461
0.72	1460
0.728	1456
0.736	1448
0.744	1437
0.752	1426
0.76	1413
0.768	1398
0.776	1380
0.784	1362
0.792	1345
0.8	1328
0.808	1310
0.816	1293
0.824	1278
0.832	1264
0.84	1251
0.848	1239
0.856	1228
0.864	1217
0.872	1207
0.88	1198
0.888	1188
0.896	1178
0.904	1168
0.912	1158
0.92	1148
0.928	1133
0.936	1125
0.944	1117
0.952	1101
0.96	1091
0.968	1083
0.976	1063
0.984	1052
0.992	1041
1	1046
1.008	1075
1.016	1124
1.024	1250
1.032	1381
1.04	1542
1.048	1723
1.056	1922
1.064	2124
1.072	2322
1.08	2507
1.088	2668
1.096	2795
1.104	2893
1.112	2964
1.12	3002
1.128	3009
1.136	2994
1.144	2962
1.152	2913
1.16	2851
1.168	2780
1.176	2701
1.184	2615
1.192	2522
1.2	2424
1.208	2322
1.216	2215
1.224	2105
1.232	1994
1.24	1885
1.248	1780
1.256	1681
1.264	1591
1.272	1509
1.28	1437
1.288	1379
1.296	1335
1.304	1302
1.312	1281
1.32	1274
1.328	1276
1.336	1284
1.344	1299
1.352	1319
1.36	1340
1.368	1360
1.376	1379
1.384	1396
1.392	1409
1.4	1421
1.408	1429
1.416	1432
1.424	1430
1.432	1425
1.44	1417
1.448	1406
1.456	1393
1.464	1379
1.472	1364
1.48	1347
1.488	1331
1.496	1315
1.504	1298
1.512	1281
1.52	1265
1.528	1249
1.536	1234
1.544	1221
1.552	1211
1.56	1201
1.568	1191
1.576	1182
1.584	1173
1.592	1164
1.6	1154
1.608	1145
1.616	1137
1.624	1128
1.632	1118
1.64	1109
1.648	1102
1.656	1095
1.664	1088
1.672	1080
1.68	1072
1.688	1064
1.696	1055
1.704	1046
1.712	1038
1.72	1034
1.728	1040
1.736	1069
1.744	1120
1.752	1194
1.76	1302
1.768	1444
1.776	1612
1.784	1798
1.792	1996
1.8	2191
1.808	2379
1.816	2552
1.824	2698
1.832	2810
1.84	2893
1.848	2951
1.856	2978
1.864	2975
1.872	2951
1.88	2912
1.888	2857
1.896	2790
1.904	2714
1.912	2633
1.92	2547
1.928	2453
1.936	2353
1.944	2249
1.952	2141
1.96	2030
1.968	1918
1.976	1809
1.984	1705
1.992	1610
2	1524
2.008	1447
2.016	1383
2.024	1334
2.032	1298
2.04	1274
2.048	1262
2.056	1262
2.064	1271
2.072	1285
2.08	1303
2.088	1324
2.096	1346
2.104	1368
2.112	1388
2.12	1403
2.128	1415
2.136	1424
2.144	1428
2.152	1428
2.16	1424
2.168	1417
2.176	1408
2.184	1396
2.192	1382
2.2	1367
2.208	1353
2.216	1337
2.224	1319
2.232	1302
2.24	1285
2.248	1269
2.256	1253
2.264	1239
2.272	1227
2.28	1215
2.288	1203
2.296	1192
2.304	1182
2.312	1172
2.32	1163
2.328	1155
2.336	1146
2.344	1137
2.352	1129
2.36	1121
2.368	1113
2.376	1105
2.384	1097
2.392	1090
2.4	1083
2.408	1075
2.416	1066
2.424	1056
2.432	1046
2.44	1039
2.448	1035
2.456	1037
2.464	1054
2.472	1097
2.48	1166
2.488	1260
2.496	1388
2.504	1547
2.512	1729
2.52	1923
2.528	2122
2.536	2312
2.544	2488
2.552	2644
2.56	2770
2.568	2862
2.576	2925
2.584	2962
2.592	2969
2.6	2952
2.608	2916
2.616	2867
2.624	2806
2.632	2734
2.64	2656
2.648	2572
2.656	2482
2.664	2385
2.672	2283
2.68	2178
2.688	2069
2.696	1959
2.704	1850
2.712	1746
2.72	1649
2.728	1561
2.736	1482
2.744	1413
2.752	1358
2.76	1317
2.768	1290
2.776	1273
2.784	1268
2.792	1273
2.8	1285
2.808	1301
2.816	1320
2.824	1340
2.832	1361
2.84	1381
2.848	1398
2.856	1410
2.864	1419
2.872	1426
2.88	1428
2.888	1425
2.896	1419
2.904	1410
2.912	1398
2.92	1385
2.928	1371
2.936	1356
2.944	1340
2.952	1324
2.96	1308
2.968	1292
2.976	1276
2.984	1260
2.992	1245
3	1232
3.008	1219
3.016	1207
3.024	1196
3.032	1186
3.04	1177
3.048	1169
3.056	1160
3.064	1150
3.072	1141
3.08	1133
3.088	1125
3.096	1116
3.104	1107
3.112	1100
3.12	1092
3.128	1084
3.136	1077
3.144	1069
3.152	1059
3.16	1049
3.168	1039
3.176	1034
3.184	1035
3.192	1047
3.2	1079
3.208	1141
3.216	1230
3.224	1345
3.232	1494
3.24	1670
3.248	1863
3.256	2062.00000000001
3.264	2256.00000000001
3.272	2434.00000000001
3.28	2594.00000000001
3.288	2732.00000000001
3.296	2838
3.304	2908
3.312	2950
3.32	2969
3.328	2962
3.336	2932
3.344	2886
3.352	2829
3.36	2762
3.368	2685
3.376	2603
3.384	2516
3.392	2422
3.4	2321
3.408	2216
3.416	2108
3.424	1999
3.432	1891
3.44	1785
3.448	1685
3.456	1594
3.464	1513
3.472	1443
3.48	1384
3.488	1337
3.496	1304
3.504	1283
3.512	1273
3.52	1272
3.528	1279
3.536	1293
3.544	1311
3.552	1332
3.56	1353
3.568	1373
3.576	1391
3.584	1405
3.592	1413
3.6	1419
3.608	1422
3.616	1420
3.624	1415
3.632	1407
3.64	1398
3.648	1387
3.656	1374
3.664	1359
3.672	1344
3.68	1328
3.688	1311
3.696	1295
3.704	1279
3.712	1262
3.72	1246
3.728	1232
3.736	1218
3.744	1205
3.752	1195
3.76	1186
3.768	1176
3.776	1167
3.784	1159
3.792	1150
3.8	1141
3.808	1132
3.816	1121
3.824	1112
3.832	1104
3.84	1096
3.848	1088
3.856	1080
3.864	1072
3.872	1064
3.88	1055
3.888	1046
3.896	1036
3.904	1027
3.912	1027
3.92	1037
3.928	1061
3.936	1110
3.944	1194
3.952	1308
3.96	1447
3.968	1616
3.976	1806
3.984	2006
3.992	2205
4	2394
4.008	2559
4.016	2702
4.024	2820
4.032	2904
4.04	2953
4.048	2975
4.056	2975
4.064	2953
4.072	2912
4.08	2857
4.088	2794
4.096	2722
4.104	2642
4.112	2556
4.12	2464
4.128	2366
4.136	2262
4.144	2154
4.152	2045
4.16	1936
4.168	1829
4.176	1727
4.184	1631
4.192	1544
4.2	1468
4.208	1404
4.216	1351
4.224	1312
4.232	1286
4.24	1271
4.248	1267
4.256	1272
4.264	1283
4.272	1300
4.28	1319
4.288	1340
4.296	1360
4.304	1378
4.312	1393
4.32	1405
4.328	1413
4.336	1417
4.344	1418
4.352	1415
4.36	1408
4.368	1398
4.376	1387
4.384	1375
4.392	1361
4.4	1345
4.408	1329
4.416	1313
4.424	1296
4.432	1278
4.44	1261
4.448	1246
4.456	1232
4.464	1219
4.472	1207
4.48	1196
4.488	1185
4.496	1175
4.504	1167
4.512	1159
4.52	1150
4.528	1141
4.536	1133
4.544	1125
4.552	1117
4.56	1109
4.568	1100
4.576	1090
4.584	1081
4.592	1073
4.6	1066
4.608	1058
4.616	1048
4.624	1038
4.632	1028
4.64	1021
4.648	1027
4.656	1045
4.664	1080
4.672	1143
4.68	1242
4.688	1371
4.696	1526
4.704	1706
4.712	1901
4.72	2102
4.728	2299
4.736	2482
4.744	2637
4.752	2766
4.76	2868
4.768	2937
4.776	2972
4.784	2980
4.792	2969
4.8	2937
4.808	2887
4.816	2827
4.824	2759
4.832	2682
4.84	2596
4.848	2505
4.856	2411
4.864	2311
4.872	2206
4.88	2098
4.888	1989
4.896	1881
4.904	1776
4.912	1675
4.92	1582
4.928	1499
4.936	1431
4.944	1374
4.952	1326
4.96	1292
4.968	1272
4.976	1262
4.984	1261
4.992	1269
5	1284
5.008	1304
5.016	1325
5.024	1347
5.032	1367
5.04	1384
5.048	1399
5.056	1410
5.064	1414
5.072	1415
5.08	1415
5.088	1412
5.096	1404
5.104	1393
5.112	1382
5.12	1369
5.128	1354
5.136	1337
5.144	1321
5.152	1304
5.16	1286
5.168	1270
5.176	1255
5.184	1241
5.192	1228
5.2	1215
5.208	1203
5.216	1192
5.224	1181
5.232	1172
5.24	1163
5.248	1154
5.256	1145
5.264	1137
5.272	1129
5.28	1121
5.288	1113
5.296	1105
5.304	1097
5.312	1089
5.32	1081
5.328	1073
5.336	1064
5.344	1054
5.352	1045
5.36	1037
5.368	1030
5.376	1028
5.384	1041
5.392	1070
5.4	1118
5.408	1197
5.416	1314
5.424	1461
5.432	1632
5.44	1825
5.448	2029
5.456	2232
5.464	2425
5.472	2599
5.48	2743
5.488	2859
5.496	2946
5.504	2999
5.512	3019
5.52	3014
5.528	2991
5.536	2948.99999999999
5.544	2890.99999999999
5.552	2822.99999999999
5.56	2747.99999999999
5.568	2663.99999999999
5.576	2572.99999999999
5.584	2478.99999999999
5.592	2379.99999999999
5.6	2274.99999999999
5.608	2166.99999999999
5.616	2056.99999999999
5.624	1947.99999999999
5.632	1839
5.64	1736
5.648	1640
5.656	1551
5.664	1474
5.672	1411
5.68	1360
5.688	1319
5.696	1292
5.704	1278
5.712	1275
5.72	1281
5.728	1294
5.736	1312
5.744	1334
5.752	1356
5.76	1378
5.768	1398
5.776	1415
5.784	1429
5.792	1438
5.8	1442
5.808	1442
5.816	1440
5.824	1435
5.832	1426
5.84	1414
5.848	1401
5.856	1387
5.864	1371
5.872	1354
5.88	1338
5.888	1322
5.896	1305
5.904	1290
5.912	1275
5.92	1261
5.928	1247
5.936	1234
5.944	1222
5.952	1210
5.96	1199
5.968	1190
5.976	1180
5.984	1171
5.992	1163
6	1155
6.008	1148
6.016	1139
6.024	1130
6.032	1121
6.04	1113
6.048	1105
6.056	1097
6.064	1089
6.072	1081
6.08	1072
6.088	1061
6.096	1051
6.104	1045
6.112	1047
6.12	1067
6.128	1106
6.136	1168
6.144	1265
6.152	1399
6.16	1561
6.168	1743
6.176	1942
6.184	2143
6.192	2341
6.2	2527
6.208	2688
6.216	2815
6.224	2913
6.232	2983
6.24	3021
6.248	3029
6.256	3014
6.264	2981
6.272	2931
6.28	2868
6.288	2797
6.296	2721
6.304	2637
6.312	2545
6.32	2448
6.328	2348
6.336	2243
6.344	2134
6.352	2025
6.36	1917
6.368	1810
6.376	1709
6.384	1617
6.392	1534
6.4	1462
6.408	1404
6.416	1358
6.424	1323
6.432	1301
6.44	1291
6.448	1289
6.456	1294
6.464	1307
6.472	1325
6.48	1345
6.488	1367
6.496	1388
6.504	1405
6.512	1419
6.52	1429
6.528	1435
6.536	1437
6.544	1436
6.552	1432
6.56	1424
6.568	1413
6.576	1401
6.584	1387
6.592	1372
6.6	1355
6.608	1338
6.616	1321
6.624	1305
6.632	1289
6.64	1273
6.648	1258
6.656	1243
6.664	1229
6.672	1217
6.68	1206
6.688	1196
6.696	1187
6.704	1178
6.712	1169
6.72	1161
6.728	1153
6.736	1144
6.744	1134
6.752	1125
6.76	1117
6.768	1110
6.776	1103
6.784	1096
6.792	1087
6.8	1079
6.808	1071
6.816	1061
6.824	1052
6.832	1044
6.84	1040
6.848	1047
6.856	1075
6.864	1123
6.872	1193
6.88	1297
6.888	1438
6.896	1605
6.904	1791
6.912	1990
6.92	2188
6.928	2378
6.936	2553
6.944	2704
6.952	2819
6.96	2904
6.968	2962
6.976	2988
6.984	2984
6.992	2959
7	2920
7.008	2866
7.016	2800
7.024	2726
7.032	2646
7.04	2560
7.048	2468
7.056	2371
7.064	2272
7.072	2167
7.08	2058
7.088	1948
7.096	1841
7.104	1739
7.112	1643
7.12	1555
7.128	1476
7.136	1409
7.144	1358
7.152	1318
7.16	1288
7.168	1270
7.176	1264
7.184	1267
7.192	1277
7.2	1293
7.208	1313
7.216	1334
7.224	1354
7.232	1373
7.24	1389
7.248	1402
7.256	1411
7.264	1416
7.272	1416
7.28	1413
7.288	1408
7.296	1399
7.304	1388
7.312	1375
7.32	1362
7.328	1346
7.336	1329
7.344	1313
7.352	1297
7.36	1281
7.368	1265
7.376	1250
7.384	1235
7.392	1222
7.4	1210
7.408	1198
7.416	1186
7.424	1175
7.432	1165
7.44	1156
7.448	1147
7.456	1139
7.464	1132
7.472	1124
7.48	1116
7.488	1107
7.496	1098
7.504	1090
7.512	1083
7.52	1077
7.528	1070
7.536	1061
7.544	1053
7.552	1044
7.56	1034
7.568	1025
7.576	1021
7.584	1029
7.592	1059
7.6	1110.00000000001
7.608	1185.00000000001
7.616	1295.00000000001
7.624	1441.00000000002
7.632	1614.00000000002
7.64	1803.00000000002
7.648	2005.00000000002
7.656	2205.00000000002
7.664	2396.00000000002
7.672	2570.00000000002
7.68	2717
7.688	2829
7.696	2911
7.704	2967
7.712	2991
7.72	2986
7.728	2960
7.736	2919
7.744	2864
7.752	2796
7.76	2719
7.768	2638
7.776	2550
7.784	2454
7.792	2353
7.8	2250
7.808	2144
7.816	2035
7.824	1924
7.832	1815
7.84	1712
7.848	1616
7.856	1529
7.864	1452
7.872	1387
7.88	1337
7.888	1299
7.896	1272
7.904	1257
7.912	1255
7.92	1262
7.928	1274
7.936	1292
7.944	1313
7.952	1335
7.96	1357
7.968	1377
7.976	1394
7.984	1407
7.992	1417
8	1423
8.008	1424
8.016	1421
8.024	1416
8.032	1408
8.04	1398
8.048	1385
8.056	1371
8.064	1355
8.072	1338
8.08	1321
8.088	1305
8.096	1288
8.104	1271
8.112	1256
8.12	1241
8.128	1227
8.136	1214
8.144	1202
8.152	1190
8.16	1179
8.168	1170
8.176	1161
8.184	1154
8.192	1147
8.2	1140
8.208	1132
8.216	1124
8.224	1116
8.232	1109
8.24	1103
8.248	1095
8.256	1087
8.264	1079
8.272	1070
8.28	1060
8.288	1050
8.296	1042
8.304	1036
8.312	1034
8.32	1042
8.328	1071
8.336	1122
8.344	1197
8.352	1307
8.36	1453
8.368	1626
8.376	1814
8.384	2015
8.392	2216
8.4	2408
8.408	2585
8.416	2735
8.424	2849
8.432	2933
8.44	2990
8.448	3014
8.456	3009
8.464	2982
8.472	2939
8.48	2883
8.488	2814
8.496	2736
8.504	2652
8.512	2562
8.52	2466
8.528	2365
8.536	2262
8.544	2155
8.552	2046
8.56	1936
8.568	1827
8.576	1723
8.584	1629
8.592	1543
8.6	1465
8.608	1400
8.616	1350
8.624	1313
8.632	1287
8.64	1272
8.648	1268
8.656	1274
8.664	1286
8.672	1304
8.68	1326
8.688	1349
8.696	1372
8.704	1392
8.712	1409
8.72	1423
8.728	1432
8.736	1436
8.744	1436
8.752	1433
8.76	1428
8.768	1419
8.776	1409
8.784	1397
8.792	1383
8.8	1367
8.808	1350
8.816	1332
8.824	1314
8.832	1297
8.84	1281
8.848	1265
8.856	1251
8.864	1237
8.872	1223
8.88	1211
8.888	1200
8.896	1190
8.904	1180
8.912	1170
8.92	1161
8.928	1153
8.936	1145
8.944	1137
8.952	1128
8.96	1119
8.968	1112
8.976	1105
8.984	1098
8.992	1090
9	1083
9.008	1076
9.016	1068
9.024	1059
9.032	1051
9.04	1044
9.048	1040
9.056	1047
9.064	1077
9.072	1129.00000000001
9.08	1206
9.088	1317.00000000003
9.096	1464
9.104	1638.00000000004
9.112	1829
9.12	2033.00000000005
9.128	2235
9.136	2428.00000000004
9.144	2604
9.152	2753.00000000003
9.16	2868
9.168	2950.00000000001
9.176	3005
9.184	3030
9.192	3024
9.2	2996.99999999999
9.208	2956
9.216	2899.99999999999
9.224	2832
9.232	2755
9.24	2673
9.248	2584
9.256	2487
9.264	2386
9.272	2281
9.28	2172
9.288	2060
9.296	1948
9.304	1837
9.312	1731
9.32	1633
9.328	1545
9.336	1467
9.344	1401
9.352	1350
9.36	1310
9.368	1281
9.376	1266
9.384	1263
9.392	1270
9.4	1282
9.408	1299
9.416	1319
9.424	1341
9.432	1364
9.44	1384
9.448	1400
9.456	1413
9.464	1425
9.472	1433
9.48	1435
9.488	1433
9.496	1428
9.504	1419
9.512	1407
9.52	1392
9.528	1376
9.536	1360
9.544	1343
9.552	1327
9.56	1311
9.568	1294
9.576	1276
9.584	1259
9.592	1245
9.6	1231
9.608	1217
9.616	1205
9.624	1194
9.632	1183
9.64	1174
9.648	1165
9.656	1157
9.664	1148
9.672	1138
9.68	1130
9.688	1123
9.696	1116
9.704	1108
9.712	1100
9.72	1092
9.728	1084
9.736	1077
9.744	1071
9.752	1063
9.76	1054
9.768	1045
9.776	1037
9.784	1031
9.792	1033
9.8	1054
9.808	1092
9.816	1152
9.824	1246
9.832	1378
9.84	1540
9.848	1723
9.856	1925
9.864	2130
9.872	2330
9.88	2518
9.888	2683
9.896	2816
9.904	2917
9.912	2990
9.92	3029
9.928	3036
9.936	3019
9.944	2986
9.952	2935
9.96	2870
9.968	2795
9.976	2714
9.984	2625
9.992	2530
10	2430
10.008	2326.99999999998
10.016	2219
10.024	2107.99999999998
10.032	1996
10.04	1884.99999999998
10.048	1778
10.056	1676.99999999998
10.064	1584
10.072	1498.99999999998
10.08	1427
10.088	1368.99999999999
10.096	1323
10.104	1287.99999999999
10.112	1266
10.12	1257
10.128	1258
10.136	1266
10.144	1281
10.152	1301
10.16	1323
10.168	1346
10.176	1367
10.184	1386
10.192	1402
10.2	1415
10.208	1424
10.216	1427
10.224	1427
10.232	1424
10.24	1417
10.248	1408
10.256	1396
10.264	1382
10.272	1366
10.28	1349
10.288	1333
10.296	1317
10.304	1301
10.312	1284
10.32	1266
10.328	1249
10.336	1234
10.344	1219
10.352	1206
10.36	1194
10.368	1183
10.376	1173
10.384	1163
10.392	1154
10.4	1145
10.408	1137
10.416	1129
10.424	1121
10.432	1113
10.44	1105
10.448	1097
10.456	1090
10.464	1083
10.472	1077
10.48	1071
10.488	1064
10.496	1055
10.504	1046
10.512	1036
10.52	1028
10.528	1026
10.536	1037
10.544	1064
10.552	1111
10.56	1192
10.568	1312
10.576	1462
10.584	1635
10.592	1832
10.6	2038
10.608	2245
10.616	2444
10.624	2620
10.632	2764
10.64	2880
10.648	2968
10.656	3021
10.664	3041
10.672	3035
10.68	3010
10.688	2965
10.696	2903
10.704	2831
10.712	2753
10.72	2667
10.728	2574
10.736	2476
10.744	2374
10.752	2267
10.76	2157
10.768	2045
10.776	1933
10.784	1823
10.792	1719
10.8	1622
10.808	1532
10.816	1452
10.824	1386
10.832	1333
10.84	1292
10.848	1264
10.856	1250
10.864	1246
10.872	1250
10.88	1263
10.888	1281
10.896	1302
10.904	1325
10.912	1349
10.92	1370
10.928	1388
10.936	1404
10.944	1416
10.952	1424
10.96	1427
10.968	1426
10.976	1420
10.984	1411
10.992	1401
11	1389
11.008	1375
11.016	1359
11.024	1341
11.032	1323
11.04	1306
11.048	1288
11.056	1270
11.064	1254
11.072	1238
11.08	1222
11.088	1208
11.096	1195
11.104	1184
11.112	1174
11.12	1164
11.128	1154
11.136	1145
11.144	1137
11.152	1130
11.16	1123
11.168	1116
11.176	1108
11.184	1100
11.192	1092
11.2	1085
11.208	1079
11.216	1072
11.224	1064
11.232	1055
11.24	1046
11.248	1036
11.256	1026
11.264	1020
11.272	1026
11.28	1045
11.288	1161
11.296	1268
11.304	1404
11.312	1759
11.32	1964
11.328	2172
11.336	2554
11.344	2711
11.352	2841
11.36	2981
11.368	3026
11.376	3043
11.384	3039
11.392	3011
11.4	2963
11.408	2901
11.416	2830
11.424	2751
11.432	2664
11.44	2570
11.448	2473
11.456	2371
11.464	2264
11.472	2154
11.48	2042
11.488	1929
11.496	1820
11.504	1717
11.512	1621
11.52	1533
11.528	1457
11.536	1393
11.544	1340
11.552	1299
11.56	1273
11.568	1258
11.576	1253
11.584	1260
11.592	1274
11.6	1293
11.608	1316
11.616	1340
11.624	1363
11.632	1384
11.64	1401
11.648	1415
11.656	1424
11.664	1430
11.672	1434
11.68	1433
11.688	1429
11.696	1422
11.704	1412
11.712	1400
11.72	1386
11.728	1371
11.736	1355
11.744	1338
11.752	1321
11.76	1304
11.768	1286
11.776	1270
11.784	1255
11.792	1241
11.8	1228
11.808	1216
11.816	1205
11.824	1195
11.832	1186
11.84	1176
11.848	1166
11.856	1156
11.864	1146
11.872	1137
11.88	1129
11.888	1121
11.896	1113
11.904	1106
11.912	1099
11.92	1092
11.928	1085
11.936	1079
11.944	1071
11.952	1062
11.96	1053
11.968	1045
11.976	1042
11.984	1045
11.992	1061
12	1101
12.008	1174.00000000002
12.016	1276
12.024	1407.00000000003
12.032	1571
12.04	1760.00000000004
12.048	1965
12.056	2175.00000000005
12.064	2378
12.072	2560.00000000004
12.08	2719
12.088	2854.00000000003
12.096	2955
12.104	3018.00000000001
12.112	3050
12.12	3057
12.128	3038
12.136	2996.99999999999
12.144	2943
12.152	2878.99999999998
12.16	2804
12.168	2719.99999999998
12.176	2631
12.184	2537.99999999998
12.192	2438
12.2	2331.99999999998
12.208	2223
12.216	2113.99999999998
12.224	2003
12.232	1892.99999999998
12.24	1786
12.248	1683.99999999998
12.256	1590
12.264	1507.99999999998
12.272	1437
12.28	1375.99999999999
12.288	1328
12.296	1295
12.304	1274
12.312	1263
12.32	1263
12.328	1272
12.336	1287
12.344	1307
12.352	1330
12.36	1352
12.368	1373
12.376	1394
12.384	1412
12.392	1425
12.4	1435
12.408	1442
12.416	1443
12.424	1439
12.432	1432
12.44	1424
12.448	1414
12.456	1401
12.464	1387
12.472	1371
12.48	1354
12.488	1335
12.496	1316
12.504	1297
12.512	1280
12.52	1264
12.528	1249
12.536	1235
12.544	1222
12.552	1210
12.56	1198
12.568	1187
12.576	1178
12.584	1168
12.592	1158
12.6	1150
12.608	1143
12.616	1136
12.624	1128
12.632	1120
12.64	1112
12.648	1104
12.656	1096
12.664	1089
12.672	1083
12.68	1076
12.688	1068
12.696	1059
12.704	1050
12.712	1042
12.72	1037
12.728	1040
12.736	1056
12.744	1098
12.752	1166
12.76	1260
12.768	1389
12.776	1553
12.784	1742
12.792	1944
12.8	2152
12.808	2351
12.816	2537
12.824	2703
12.832	2837
12.84	2934
12.848	2999
12.856	3037
12.864	3045
12.872	3026
12.88	2986
12.888	2932
12.896	2865
12.904	2788
12.912	2704
12.92	2616
12.928	2522
12.936	2421
12.944	2316
12.952	2207
12.96	2096
12.968	1983
12.976	1871
12.984	1762
12.992	1658
13	1564
13.008	1479.99999999998
13.016	1406
13.024	1344.99999999999
13.032	1300
13.04	1266.99999999999
13.048	1246
13.056	1239
13.064	1245
13.072	1258
13.08	1275
13.088	1297.00000000001
13.096	1322
13.104	1346.00000000001
13.112	1369
13.12	1392
13.128	1410
13.136	1423
13.144	1432
13.152	1436
13.16	1436
13.168	1432
13.176	1426
13.184	1418
13.192	1407
13.2	1394
13.208	1378
13.216	1361
13.224	1344
13.232	1325
13.24	1307
13.248	1290
13.256	1272
13.264	1255
13.272	1240
13.28	1225
13.288	1211
13.296	1198
13.304	1185
13.312	1173
13.32	1162
13.328	1152
13.336	1144
13.344	1137
13.352	1131
13.36	1125
13.368	1119
13.376	1111
13.384	1102
13.392	1094
13.4	1087
13.408	1081
13.416	1075
13.424	1069
13.432	1062
13.44	1052
13.448	1042
13.456	1034
13.464	1029
13.472	1032
13.48	1054
13.488	1096
13.496	1161
13.504	1260
13.512	1395
13.52	1560
13.528	1743
13.536	1942
13.544	2144
13.552	2342
13.56	2526
13.568	2685
13.576	2811
13.584	2906
13.592	2973
13.6	3009
13.608	3014
13.616	2995
13.624	2960
13.632	2907
13.64	2839
13.648	2762
13.656	2680
13.664	2591
13.672	2495
13.68	2394
13.688	2289
13.696	2181
13.704	2071
13.712	1960
13.72	1849
13.728	1742
13.736	1641
13.744	1549
13.752	1467
13.76	1398
13.768	1342
13.776	1298
13.784	1266
13.792	1248
13.8	1242
13.808	1246
13.816	1259
13.824	1278
13.832	1300
13.84	1325
13.848	1351
13.856	1375
13.864	1396
13.872	1414
13.88	1429
13.888	1439
13.896	1444
13.904	1445
13.912	1444
13.92	1439
13.928	1430
13.936	1417
13.944	1403
13.952	1388
13.96	1371
13.968	1354
13.976	1337
13.984	1320
13.992	1302
14	1285
14.008	1268
14.016	1251
14.024	1237
14.032	1224
14.04	1212
14.048	1201
14.056	1192
14.064	1183
14.072	1174
14.08	1165
14.088	1158
14.096	1151
14.104	1144
14.112	1136
14.12	1128
14.128	1120
14.136	1113
14.144	1107
14.152	1100
14.16	1093
14.168	1086
14.176	1077
14.184	1069
14.192	1061
14.2	1055
14.208	1055
14.216	1071
14.224	1104
14.232	1157.00000000001
14.24	1243
14.248	1366.00000000003
14.256	1517
14.264	1691.00000000004
14.272	1886
14.28	2088.00000000004
14.288	2289
14.296	2480.00000000004
14.304	2648
14.312	2785.00000000003
14.32	2894
14.328	2976.00000000001
14.336	3026
14.344	3041
14.352	3031
14.36	3002
14.368	2954
14.376	2891
14.384	2818
14.392	2738
14.4	2651
14.408	2558
14.416	2459
14.424	2356
14.432	2248
14.44	2137
14.448	2025
14.456	1914
14.464	1805
14.472	1703
14.48	1608
14.488	1521
14.496	1447
14.504	1387
14.512	1339
14.52	1302
14.528	1278
14.536	1267
14.544	1267
14.552	1275
14.56	1290
14.568	1311
14.576	1337
14.584	1362
14.592	1386
14.6	1409
14.608	1429
14.616	1445
14.624	1456
14.632	1462
14.64	1465
14.648	1465
14.656	1461
14.664	1453
14.672	1442
14.68	1429
14.688	1415
14.696	1399
14.704	1381
14.712	1362
14.72	1343
14.728	1325
14.736	1307
14.744	1290
14.752	1274
14.76	1259
14.768	1245
14.776	1233
14.784	1223
14.792	1213
14.8	1203
14.808	1193
14.816	1184
14.824	1175
14.832	1166
14.84	1157
14.848	1149
14.856	1141
14.864	1134
14.872	1127
14.88	1121
14.888	1115
14.896	1109
14.904	1103
14.912	1095
14.92	1086
14.928	1077
14.936	1070
14.944	1067
14.952	1078
14.96	1103
14.968	1148
14.976	1223
14.984	1337
14.992	1482
15	1649
15.008	1839.00000000004
15.016	2040
15.024	2243.00000000004
15.032	2439
15.04	2616.00000000004
15.048	2763
15.056	2882.00000000002
15.064	2974
15.072	3034.00000000001
15.08	3060
15.088	3059
15.096	3039
15.104	2998.99999999999
15.112	2941
15.12	2870.99999999998
15.128	2794
15.136	2708.99999999998
15.144	2616
15.152	2516.99999999998
15.16	2416
15.168	2309.99999999998
15.176	2199
15.184	2085.99999999997
15.192	1973
15.2	1861.99999999998
15.208	1756
15.216	1656.99999999998
15.224	1566
15.232	1485.99999999998
15.24	1420
15.248	1365.99999999999
15.256	1324
15.264	1296
15.272	1282
15.28	1278
15.288	1282
15.296	1295
15.304	1314
15.312	1336.00000000001
15.32	1361
15.328	1387.00000000001
15.336	1410
15.344	1429
15.352	1446
15.36	1458
15.368	1465
15.376	1469
15.384	1470
15.392	1467
15.4	1460
15.408	1449
15.416	1437
15.424	1422
15.432	1405
15.44	1388
15.448	1370
15.456	1352
15.464	1334
15.472	1316
15.48	1298
15.488	1282
15.496	1267
15.504	1254
15.512	1242
15.52	1230
15.528	1219
15.536	1210
15.544	1200
15.552	1191
15.56	1183
15.568	1175
15.576	1167
15.584	1158
15.592	1149
15.6	1142
15.608	1136
15.616	1129
15.624	1122
15.632	1116
15.64	1109
15.648	1102
15.656	1093
15.664	1083
15.672	1074
15.68	1069
15.688	1078
15.696	1101
15.704	1143
15.712	1215
15.72	1325
15.728	1465
15.736	1629
15.744	1818
15.752	2019
15.76	2224
15.768	2423
15.776	2605
15.784	2757
15.792	2881
15.8	2978
15.808	3040
15.816	3068
15.824	3070
15.832	3052
15.84	3013
15.848	2957
15.856	2889
15.864	2813
15.872	2730
15.88	2639
15.888	2543
15.896	2443
15.904	2338
15.912	2228
15.92	2116
15.928	2004
15.936	1893
15.944	1788
15.952	1689
15.96	1598
15.968	1517
15.976	1450
15.984	1394
15.992	1349
16	1318
16.008	1300
16.016	1293
16.024	1295
16.032	1306
16.04	1323
16.048	1344.00000000001
16.056	1366
16.064	1389
16.072	1411
16.08	1430.00000000001
16.088	1446
16.096	1458
16.104	1465
16.112	1468
16.12	1467
16.128	1463
16.136	1455
16.144	1445
16.152	1433
16.16	1419
16.168	1403
16.176	1385.99999999999
16.184	1368
16.192	1350
16.2	1333
16.208	1315.99999999999
16.216	1298
16.224	1281
16.232	1265
16.24	1249.99999999999
16.248	1236
16.256	1223
16.264	1212
16.272	1201
16.28	1191
16.288	1183
16.296	1175
16.304	1167
16.312	1159
16.32	1151
16.328	1144
16.336	1136
16.344	1127
16.352	1119
16.36	1113
16.368	1107
16.376	1100
16.384	1091
16.392	1081
16.4	1071
16.408	1063
16.416	1060
16.424	1068
16.432	1089
16.44	1129
16.448	1197
16.456	1302
16.464	1439
16.472	1602
16.48	1790
16.488	1991
16.496	2196
16.504	2396
16.512	2579
16.52	2733
16.528	2860
16.536	2960
16.544	3026
16.552	3057
16.56	3061
16.568	3045
16.576	3008
16.584	2952
16.592	2885
16.6	2811
16.608	2729
16.616	2639
16.624	2544
16.632	2445
16.64	2340
16.648	2229
16.656	2117
16.664	2005
16.672	1894
16.68	1786
16.688	1685
16.696	1593
16.704	1511
16.712	1441
16.72	1382
16.728	1335
16.736	1302
16.744	1282
16.752	1275
16.76	1278
16.768	1288
16.776	1304
16.784	1325
16.792	1350
16.8	1375
16.808	1398
16.816	1418
16.824	1436
16.832	1449
16.84	1457
16.848	1461
16.856	1462
16.864	1459
16.872	1451
16.88	1439
16.888	1426
16.896	1411
16.904	1395
16.912	1378
16.92	1360
16.928	1342
16.936	1324
16.944	1306
16.952	1290
16.96	1275
16.968	1260
16.976	1245
16.984	1232
16.992	1219
17	1208
17.008	1197
17.016	1187
17.024	1178
17.032	1169
17.04	1161
17.048	1153
17.056	1145
17.064	1137
17.072	1130
17.08	1123
17.088	1116
17.096	1108
17.104	1100
17.112	1093
17.12	1086
17.128	1076
17.136	1065
17.144	1056
17.152	1051
17.16	1058
17.168	1076
17.176	1111.00000000002
17.184	1176
17.192	1277
17.2	1409
17.208	1567.00000000008
17.216	1752
17.224	1952
17.232	2158
17.24	2359.00000000009
17.248	2545
17.256	2703
17.264	2834
17.272	2938.00000000004
17.28	3009
17.288	3046
17.296	3054
17.304	3041.99999999999
17.312	3009
17.32	2957
17.328	2893
17.336	2820.99999999997
17.344	2740
17.352	2651
17.36	2558
17.368	2459.99999999995
17.376	2356
17.384	2247
17.392	2136
17.4	2023.99999999995
17.408	1913
17.416	1807
17.424	1706
17.432	1612
17.44	1529
17.448	1459
17.456	1401
17.464	1354
17.472	1319
17.48	1299
17.488	1291
17.496	1292
17.504	1301
17.512	1318
17.52	1339
17.528	1363
17.536	1387
17.544	1408
17.552	1427
17.56	1444
17.568	1456
17.576	1463
17.584	1466
17.592	1466
17.6	1463
17.608	1456
17.616	1445
17.624	1433
17.632	1420
17.64	1404
17.648	1385
17.656	1367
17.664	1349
17.672	1331
17.68	1315
17.688	1300
17.696	1284
17.704	1269
17.712	1256
17.72	1244
17.728	1232
17.736	1220
17.744	1210
17.752	1201
17.76	1193
17.768	1186
17.776	1179
17.784	1172
17.792	1164
17.8	1156
17.808	1148
17.816	1140
17.824	1133
17.832	1127
17.84	1120
17.848	1111
17.856	1102
17.864	1093
17.872	1085
17.88	1077
17.888	1073
17.896	1081
17.904	1102
17.912	1141
17.92	1211
17.928	1318
17.936	1455
17.944	1618
17.952	1806
17.96	2009
17.968	2217
17.976	2419
17.984	2604
17.992	2758
18	2884
18.008	2984
18.016	3050.00000000002
18.024	3081
18.032	3085
18.04	3068
18.048	3029.99999999998
18.056	2976
18.064	2910
18.072	2835
18.08	2753.99999999996
18.088	2666
18.096	2572
18.104	2473
18.112	2369.99999999995
18.12	2262
18.128	2152
18.136	2042
18.144	1931.99999999995
18.152	1826
18.16	1726
18.168	1634
18.176	1551.99999999997
18.184	1482
18.192	1423
18.2	1377
18.208	1344.99999999999
18.216	1325
18.224	1317
18.232	1318
18.24	1327.00000000001
18.248	1343
18.256	1363
18.264	1385
18.272	1407.00000000001
18.28	1427
18.288	1444
18.296	1458
18.304	1468
18.312	1473
18.32	1475
18.328	1474
18.336	1469
18.344	1462
18.352	1451
18.36	1438
18.368	1422.99999999999
18.376	1407
18.384	1390
18.392	1372
18.4	1352.99999999999
18.408	1335
18.416	1318
18.424	1301
18.432	1284.99999999999
18.44	1269
18.448	1254
18.456	1241
18.464	1230
18.472	1218
18.48	1207
18.488	1198
18.496	1190
18.504	1182
18.512	1173
18.52	1165
18.528	1157
18.536	1149
18.544	1141
18.552	1133
18.56	1125
18.568	1117
18.576	1110
18.584	1103
18.592	1095
18.6	1085
18.608	1075
18.616	1067
18.624	1064
18.632	1074
18.64	1100
18.648	1147
18.656	1225
18.664	1340
18.672	1486
18.68	1654
18.688	1844
18.696	2046
18.704	2249
18.712	2445
18.72	2622
18.728	2768
18.736	2886
18.744	2976
18.752	3033
18.76	3058
18.768	3056
18.776	3035
18.784	2995
18.792	2938
18.8	2870
18.808	2795
18.816	2712
18.824	2621
18.832	2526
18.84	2427
18.848	2324
18.856	2215
18.864	2105
18.872	1995
18.88	1885
18.888	1779
18.896	1679
18.904	1588
18.912	1508
18.92	1442
18.928	1388
18.936	1345
18.944	1316
18.952	1299
18.96	1293
18.968	1294
18.976	1303
18.984	1319
18.992	1338
19	1359
19.008	1380
19.016	1397.00000000001
19.024	1413
19.032	1427
19.04	1437
19.048	1443
19.056	1446
19.064	1446
19.072	1443
19.08	1437
19.088	1428
19.096	1416
19.104	1402
19.112	1385.99999999999
19.12	1369
19.128	1352
19.136	1333
19.144	1314.99999999999
19.152	1298
19.16	1280
19.168	1263
19.176	1248.99999999999
19.184	1236
19.192	1223
19.2	1211
19.208	1198.99999999999
19.216	1188
19.224	1178
19.232	1168
19.24	1158
19.248	1149
19.256	1141
19.264	1133
19.272	1125
19.28	1116
19.288	1107
19.296	1100
19.304	1091
19.312	1083
19.32	1075
19.328	1065
19.336	1055
19.344	1046
19.352	1039
19.36	1039
19.368	1054.00000000001
19.376	1087
19.384	1143
19.392	1230
19.4	1353.00000000006
19.408	1507
19.416	1682
19.424	1874
19.432	2074.00000000009
19.44	2272
19.448	2459
19.456	2627
19.464	2764
19.472	2871
19.48	2952
19.488	3000
19.496	3015
19.504	3006
19.512	2978
19.52	2931
19.528	2870
19.536	2799
19.544	2723
19.552	2640
19.56	2548
19.568	2451
19.576	2349
19.584	2242
19.592	2132
19.6	2020
19.608	1909
19.616	1802
19.624	1700
19.632	1605
19.64	1520
19.648	1446
19.656	1386
19.664	1338
19.672	1302
19.68	1280
19.688	1271
19.696	1273
19.704	1281
19.712	1296
19.72	1316
19.728	1339
19.736	1364
19.744	1387
19.752	1407
19.76	1423
19.768	1435
19.776	1443
19.784	1447
19.792	1447
19.8	1443
19.808	1436
19.816	1426
19.824	1414
19.832	1400
19.84	1384
19.848	1368
19.856	1351
19.864	1335
19.872	1319
19.88	1302
19.888	1285
19.896	1269
19.904	1254
19.912	1239
19.92	1226
19.928	1214
19.936	1202
19.944	1190
19.952	1179
19.96	1171
19.968	1164
19.976	1156
19.984	1148
19.992	1140
20	1132
20.008	1124
20.016	1116
20.024	1109
20.032	1103
20.04	1095
20.048	1087
20.056	1079
20.064	1070
20.072	1060
20.08	1051
20.088	1048
20.096	1053
20.104	1078
20.112	1124.00000000002
20.12	1193
20.128	1296
20.136	1435
20.144	1602.00000000008
20.152	1787
20.16	1987
20.168	2188
20.176	2383.00000000008
20.184	2564
20.192	2718
20.2	2839
20.208	2931.00000000003
20.216	2995
20.224	3028
20.232	3030
20.24	3008.99999999999
20.248	2973
20.256	2920
20.264	2852
20.272	2774.99999999996
20.28	2693
20.288	2604
20.296	2507
20.304	2405.99999999995
20.312	2301
20.32	2193
20.328	2082
20.336	1968.99999999995
20.344	1859
20.352	1753
20.36	1654
20.368	1562.99999999996
20.376	1483
20.384	1415
20.392	1361
20.4	1320.99999999999
20.408	1293
20.416	1277
20.424	1273
20.432	1278
20.44	1289
20.448	1308
20.456	1330
20.464	1353.00000000001
20.472	1376
20.48	1397
20.488	1416
20.496	1431
20.504	1442
20.512	1447
20.52	1448
20.528	1445
20.536	1440
20.544	1431
20.552	1421
20.56	1409
20.568	1395
20.576	1379
20.584	1361
20.592	1343
20.6	1326
20.608	1309
20.616	1292
20.624	1274
20.632	1258
20.64	1244
20.648	1231
20.656	1220
20.664	1209
20.672	1199
20.68	1190
20.688	1180
20.696	1169
20.704	1160
20.712	1151
20.72	1142
20.728	1134
20.736	1127
20.744	1119
20.752	1111
20.76	1104
20.768	1097
20.776	1090
20.784	1081
20.792	1073
20.8	1065
20.808	1058
20.816	1052
20.824	1052
20.832	1066
20.84	1106
20.848	1171
20.856	1262
20.864	1387
20.872	1546
20.88	1728
20.888	1924
20.896	2127
20.904	2323
20.912	2506
20.92	2671
20.928	2807
20.936	2907
20.944	2978
20.952	3021
20.96	3035
20.968	3022
20.976	2988
20.984	2941
20.992	2881
21	2809
21.008	2730
21.016	2644.99999999996
21.024	2554
21.032	2455
21.04	2352
21.048	2244.99999999995
21.056	2135
21.064	2023
21.072	1912
21.08	1803.99999999995
21.088	1701
21.096	1608
21.104	1524
21.112	1449.99999999997
21.12	1389
21.128	1344
21.136	1311
21.144	1288.99999999999
21.152	1279
21.16	1281
21.168	1291
21.176	1306.00000000001
21.184	1324
21.192	1344
21.2	1367
21.208	1390.00000000001
21.216	1408
21.224	1422
21.232	1433
21.24	1441
21.248	1445
21.256	1445
21.264	1440
21.272	1432
21.28	1422
21.288	1409
21.296	1395
21.304	1378.99999999999
21.312	1362
21.32	1344
21.328	1326
21.336	1307.99999999999
21.344	1290
21.352	1273
21.36	1258
21.368	1242.99999999999
21.376	1229
21.384	1217
21.392	1206
21.4	1195
21.408	1185
21.416	1175
21.424	1166
21.432	1157
21.44	1149
21.448	1141
21.456	1133
21.464	1125
21.472	1117
21.48	1109
21.488	1102
21.496	1095
21.504	1088
21.512	1080
21.52	1071
21.528	1062
21.536	1050
21.544	1046
21.552	1048
21.56	1104
21.568	1172
21.576	1267
21.584	1465
21.592	1640
21.6	1835
21.608	2038
21.616	2335
21.624	2517
21.632	2680
21.64	2917
21.648	2983
21.656	3022
21.664	3035
21.672	3010
21.68	2966
21.688	2910
21.696	2842
21.704	2764
21.712	2680
21.72	2591
21.728	2496
21.736	2395
21.744	2291
21.752	2183
21.76	2072
21.768	1960
21.776	1849
21.784	1743
21.792	1644
21.8	1554
21.808	1474
21.816	1406
21.824	1352
21.832	1312
21.84	1285
21.848	1270
21.856	1266
21.864	1272
21.872	1285
21.88	1303
21.888	1325
21.896	1348
21.904	1370
21.912	1391
21.92	1409
21.928	1423
21.936	1433
21.944	1438
21.952	1438
21.96	1434
21.968	1427
21.976	1419
21.984	1408
21.992	1393
22	1377
22.008	1361
22.016	1343.99999999999
22.024	1325
22.032	1307
22.04	1290
22.048	1272.99999999999
22.056	1258
22.064	1243
22.072	1229
22.08	1215.99999999999
22.088	1203
22.096	1191
22.104	1181
22.112	1172
22.12	1162
22.128	1152
22.136	1143
22.144	1135
22.152	1126
22.16	1117
22.168	1109
22.176	1102
22.184	1095
22.192	1089
22.2	1083
22.208	1077
22.216	1069
22.224	1058
22.232	1047
22.24	1038
22.248	1033
22.256	1035
22.264	1049
22.272	1086.00000000002
22.28	1156
22.288	1255
22.296	1381
22.304	1540.00000000008
22.312	1725
22.32	1927
22.328	2134
22.336	2335.00000000009
22.344	2517
22.352	2679
22.36	2817
22.368	2921.00000000004
22.376	2989
22.384	3027
22.392	3041
22.4	3028.99999999999
22.408	2993
22.416	2942
22.424	2881
22.432	2808.99999999997
22.44	2727
22.448	2639
22.456	2547
22.464	2448.99999999995
22.472	2345
22.48	2237
22.488	2126
22.496	2011.99999999995
22.504	1900
22.512	1792
22.52	1689
22.528	1595
22.536	1511
22.544	1437
22.552	1375
22.56	1328
22.568	1295
22.576	1274
22.584	1263
22.592	1264
22.6	1273
22.608	1289
22.616	1309
22.624	1331
22.632	1353
22.64	1374
22.648	1392
22.656	1407
22.664	1419
22.672	1427
22.68	1430
22.688	1428
22.696	1423
22.704	1415
22.712	1405
22.72	1393
22.728	1379
22.736	1363
22.744	1346
22.752	1329
22.76	1312
22.768	1294
22.776	1276
22.784	1259
22.792	1244
22.8	1228
22.808	1213
22.816	1200
22.824	1187
22.832	1176
22.84	1166
22.848	1157
22.856	1150
22.864	1143
22.872	1136
22.88	1127
22.888	1118
22.896	1109
22.904	1101
22.912	1092
22.92	1083
22.928	1077
22.936	1071
22.944	1064
22.952	1055
22.96	1046
22.968	1036
22.976	1026
22.984	1023
22.992	1030
23	1049
23.008	1092
23.016	1170.00000000004
23.024	1280
23.032	1417
23.04	1585
23.048	1777.00000000009
23.056	1983
23.064	2190
23.072	2388
23.08	2565.00000000007
23.088	2719
23.096	2848
23.104	2943
23.112	3002.00000000002
23.12	3031
23.128	3038
23.136	3019
23.144	2977.99999999998
23.152	2922
23.16	2857
23.168	2784
23.176	2700.99999999996
23.184	2612
23.192	2518
23.2	2418
23.208	2311.99999999995
23.216	2202
23.224	2090
23.232	1978
23.24	1867.99999999995
23.248	1761
23.256	1661
23.264	1570
23.272	1489.99999999997
23.28	1421
23.288	1364
23.296	1320
23.304	1289.99999999999
23.312	1272
23.32	1265
23.328	1269
23.336	1281.00000000001
23.344	1298
23.352	1318
23.36	1341
23.368	1363.00000000001
23.376	1383
23.384	1402
23.392	1417
23.4	1428
23.408	1434
23.416	1437
23.424	1437
23.432	1432
23.44	1424
23.448	1414
23.456	1401
23.464	1385.99999999999
23.472	1369
23.48	1353
23.488	1336
23.496	1316.99999999999
23.504	1299
23.512	1282
23.52	1264
23.528	1246.99999999999
23.536	1233
23.544	1220
23.552	1207
23.56	1196
23.568	1185
23.576	1174
23.584	1163
23.592	1154
23.6	1145
23.608	1137
23.616	1129
23.624	1121
23.632	1113
23.64	1105
23.648	1098
23.656	1091
23.664	1084
23.672	1076
23.68	1069
23.688	1062
23.696	1053
23.704	1045
23.712	1039
23.72	1041
23.728	1053
23.736	1083
23.744	1141
23.752	1235
23.76	1361
23.768	1512
23.776	1691
23.784	1891
23.792	2099
23.8	2305
23.808	2498
23.816	2664
23.824	2804
23.832	2918
23.84	2999
23.848	3045
23.856	3062
23.864	3056
23.872	3027
23.88	2980
23.888	2920
23.896	2851
23.904	2774
23.912	2689
23.92	2599
23.928	2504
23.936	2402
23.944	2294
23.952	2184
23.96	2073
23.968	1961
23.976	1851
23.984	1746
23.992	1648
24	1559
24.008	1483
24.016	1418.99999999997
24.024	1367
24.032	1329
24.04	1304
24.048	1290
24.056	1287
24.064	1295
24.072	1309
24.08	1327.00000000001
24.088	1349
24.096	1372
24.104	1392
24.112	1410.00000000001
24.12	1425
24.128	1437
24.136	1445
24.144	1449
24.152	1449
24.16	1445
24.168	1437
24.176	1425.99999999999
24.184	1413
24.192	1398
24.2	1381
24.208	1364.99999999999
24.216	1348
24.224	1330
24.232	1312
24.24	1293.99999999999
24.248	1278
24.256	1263
24.264	1248
24.272	1232.99999999999
24.28	1220
24.288	1207
24.296	1196
24.304	1186
24.312	1177
24.32	1169
24.328	1160
24.336	1150
24.344	1141
24.352	1133
24.36	1125
24.368	1117
24.376	1109
24.384	1102
24.392	1095
24.4	1088
24.408	1080
24.416	1071
24.424	1061
24.432	1051
24.44	1042
24.448	1036
24.456	1043
24.464	1064.00000000001
24.472	1103
24.48	1172
24.488	1277
24.496	1415.00000000007
24.504	1578
24.512	1766
24.52	1968
24.528	2174.00000000009
24.536	2374
24.544	2556
24.552	2709
24.56	2836.00000000005
24.568	2935
24.576	3001
24.584	3033
24.592	3038
24.6	3022
24.608	2985
24.616	2932
24.624	2868
24.632	2796
24.64	2716
24.648	2628
24.656	2534
24.664	2436
24.672	2333
24.68	2226
24.688	2115
24.696	2004
24.704	1893
24.712	1786
24.72	1683
24.728	1589
24.736	1507
24.744	1438
24.752	1380
24.76	1334
24.768	1302
24.776	1284
24.784	1278
24.792	1281
24.8	1292
24.808	1309
24.816	1331
24.824	1355
24.832	1379
24.84	1399
24.848	1416
24.856	1429
24.864	1438
24.872	1442
24.88	1443
24.888	1441
24.896	1435
24.904	1426
24.912	1414
24.92	1400
24.928	1384
24.936	1367
24.944	1350
24.952	1332
24.96	1313
24.968	1294
24.976	1274
24.984	1255
24.992	1238
25	1222
25.008	1208
25.016	1194.99999999999
25.024	1184
25.032	1174
25.04	1165
25.048	1158
25.056	1151
25.064	1144
25.072	1137
25.08	1130
25.088	1121
25.096	1113
25.104	1106
25.112	1099
25.12	1091
25.128	1081
25.136	1072
25.144	1064
25.152	1054
25.16	1043
25.168	1034
25.176	1026
25.184	1024
25.192	1037
25.2	1065
25.208	1112.00000000003
25.216	1190
25.224	1306
25.232	1452
25.24	1621.00000000008
25.248	1812
25.256	2012
25.264	2214
25.272	2407.00000000008
25.28	2580
25.288	2722
25.296	2836
25.304	2922.00000000003
25.312	2975
25.32	2997
25.328	2994
25.336	2971.99999999999
25.344	2931
25.352	2874
25.36	2806
25.368	2730.99999999996
25.376	2648
25.384	2556
25.392	2459
25.4	2358.99999999995
25.408	2253
25.416	2142
25.424	2030
25.432	1918.99999999995
25.44	1811
25.448	1709
25.456	1613
25.464	1525.99999999996
25.472	1451
25.48	1390
25.488	1340
25.496	1300.99999999999
25.504	1276
25.512	1264
25.52	1263
25.528	1271
25.536	1285
25.544	1304
25.552	1326
25.56	1348.00000000001
25.568	1370
25.576	1389
25.584	1404
25.592	1416
25.6	1425
25.608	1429
25.616	1428
25.624	1424
25.632	1417
25.64	1407
25.648	1395
25.656	1381
25.664	1365
25.672	1349
25.68	1333
25.688	1316
25.696	1298
25.704	1281
25.712	1265
25.72	1250
25.728	1235
25.736	1221
25.744	1209
25.752	1198
25.76	1187
25.768	1178
25.776	1168
25.784	1159
25.792	1151
25.8	1142
25.808	1133
25.816	1126
25.824	1118
25.832	1109
25.84	1101
25.848	1093
25.856	1085
25.864	1078
25.872	1071
25.88	1063
25.888	1053
25.896	1043
25.904	1034
25.912	1027
25.92	1030
25.928	1052
25.936	1094
25.944	1159
25.952	1257
25.96	1391
25.968	1554
25.976	1737
25.984	1936
25.992	2136
26	2330
26.008	2511
26.016	2669.00000000006
26.024	2793
26.032	2888
26.04	2956
26.048	2992
26.056	2997
26.064	2980
26.072	2947
26.08	2897.99999999997
26.088	2833
26.096	2759
26.104	2679
26.112	2591.99999999996
26.12	2498
26.128	2400
26.136	2299
26.144	2192.99999999995
26.152	2082
26.16	1970
26.168	1860
26.176	1752.99999999995
26.184	1655
26.192	1566
26.2	1485
26.208	1415.99999999997
26.216	1360
26.224	1317
26.232	1286
26.24	1268
26.248	1263
26.256	1268
26.264	1280
26.272	1299.00000000001
26.28	1322
26.288	1344
26.296	1366
26.304	1387.00000000001
26.312	1404
26.32	1417
26.328	1428
26.336	1433
26.344	1433
26.352	1430
26.36	1425
26.368	1418
26.376	1406
26.384	1392
26.392	1377
26.4	1360.99999999999
26.408	1345
26.416	1328
26.424	1310
26.432	1292.99999999999
26.44	1277
26.448	1261
26.456	1246
26.464	1231.99999999999
26.472	1218
26.48	1205
26.488	1195
26.496	1185
26.504	1175
26.512	1166
26.52	1157
26.528	1149
26.536	1141
26.544	1133
26.552	1125
26.56	1117
26.568	1109
26.576	1101
26.584	1094
26.592	1087
26.6	1079
26.608	1070
26.616	1062
26.624	1054
26.632	1045
26.64	1038
26.648	1035
26.656	1046
26.664	1081
26.672	1140
26.68	1224
26.688	1342
26.696	1495
26.704	1674
26.712	1868
26.72	2072
26.728	2271
26.736	2460
26.744	2630
26.752	2771
26.76	2877
26.768	2953
26.776	3003
26.784	3022
26.792	3012
26.8	2981
26.808	2937
26.816	2880
26.824	2809
26.832	2731
26.84	2648
26.848	2557
26.856	2460
26.864	2358
26.872	2254
26.88	2146
26.888	2035
26.896	1925
26.904	1817
26.912	1714
26.92	1619
26.928	1534
26.936	1459
26.944	1398
26.952	1351
26.96	1317
26.968	1294
26.976	1282
26.984	1281
26.992	1289
27	1303
27.008	1322
27.016	1343.00000000001
27.024	1366
27.032	1388
27.04	1408
27.048	1423.00000000001
27.056	1434
27.064	1441
27.072	1444
27.08	1442
27.088	1437
27.096	1430
27.104	1419
27.112	1405.99999999999
27.12	1391
27.128	1375
27.136	1358
27.144	1338.99999999999
27.152	1320
27.16	1302
27.168	1284
27.176	1266.99999999999
27.184	1252
27.192	1237
27.2	1224
27.208	1210.99999999999
27.216	1200
27.224	1190
27.232	1181
27.24	1172
27.248	1162
27.256	1153
27.264	1145
27.272	1137
27.28	1129
27.288	1120
27.296	1110
27.304	1101
27.312	1095
27.32	1090
27.328	1082
27.336	1073
27.344	1065
27.352	1055
27.36	1044
27.368	1035
27.376	1030
27.384	1032
27.392	1050
27.4	1096.00000000003
27.408	1168
27.416	1266
27.424	1399
27.432	1565.00000000008
27.44	1753
27.448	1954
27.456	2160
27.464	2355.00000000008
27.472	2536
27.48	2696
27.488	2824
27.496	2916.00000000003
27.504	2979
27.512	3017
27.52	3025
27.528	3005.99999999999
27.536	2967
27.544	2916
27.552	2852
27.56	2776.99999999997
27.568	2696
27.576	2610
27.584	2517
27.592	2416.99999999995
27.6	2313
27.608	2207
27.616	2098
27.624	1986.99999999995
27.632	1877
27.64	1771
27.648	1673
27.656	1585
27.664	1505
27.672	1435
27.68	1379
27.688	1337
27.696	1307
27.704	1288
27.712	1280
27.72	1282
27.728	1292
27.736	1307
27.744	1326
27.752	1346
27.76	1366
27.768	1386
27.776	1404
27.784	1416
27.792	1424
27.8	1430
27.808	1431
27.816	1428
27.824	1421
27.832	1412
27.84	1401
27.848	1389
27.856	1374
27.864	1357
27.872	1341
27.88	1323
27.888	1304
27.896	1286
27.904	1269
27.912	1254
27.92	1239
27.928	1224
27.936	1210
27.944	1198
27.952	1186
27.96	1175
27.968	1165
27.976	1155
27.984	1147
27.992	1139
28	1131
28.008	1123
28.016	1114
28.024	1105
28.032	1098
28.04	1091
28.048	1084
28.056	1076
28.064	1068
28.072	1060
28.08	1052
28.088	1043
28.096	1034
28.104	1027
28.112	1024
28.12	1028
28.128	1050
28.136	1101
28.144	1180.00000000004
28.152	1287
28.16	1429
28.168	1602
28.176	1796.00000000009
28.184	1999
28.192	2204
28.2	2396
28.208	2572.00000000007
28.216	2727
28.224	2850
28.232	2935
28.24	2990.00000000002
28.248	3020
28.256	3022
28.264	2998
28.272	2955.99999999998
28.28	2902
28.288	2836
28.296	2759
28.304	2675.99999999996
28.312	2587
28.32	2492
28.328	2391
28.336	2286.99999999995
28.344	2179
28.352	2068
28.36	1957
28.368	1847.99999999995
28.376	1741
28.384	1642
28.392	1554
28.4	1475.99999999997
28.408	1408
28.416	1354
28.424	1315
28.432	1288.99999999999
28.44	1273
28.448	1267
28.456	1271
28.464	1283.00000000001
28.472	1299
28.48	1318
28.488	1338
28.496	1359.00000000001
28.504	1379
28.512	1395
28.52	1407
28.528	1416
28.536	1421
28.544	1422
28.552	1419
28.56	1414
28.568	1406
28.576	1395
28.584	1382
28.592	1366.99999999999
28.6	1351
28.608	1334
28.616	1316
28.624	1297.99999999999
28.632	1280
28.64	1262
28.648	1246
28.656	1230.99999999999
28.664	1217
28.672	1204
28.68	1192
28.688	1182
28.696	1173
28.704	1165
28.712	1156
28.72	1146
28.728	1137
28.736	1129
28.744	1121
28.752	1113
28.76	1105
28.768	1097
28.776	1088
28.784	1079
28.792	1072
28.8	1064
28.808	1055
28.816	1046
28.824	1036
28.832	1026
28.84	1020
28.848	1019
28.856	1029
28.864	1058
28.872	1116
28.88	1203
28.888	1318
28.896	1467
28.904	1647
28.912	1846
28.92	2052
28.928	2256
28.936	2444
28.944	2614
28.952	2762
28.96	2876
28.968	2952
28.976	2999
28.984	3021
28.992	3015
29	2986
29.008	2939
29.016	2880.99999999997
29.024	2813
29.032	2735
29.04	2649
29.048	2558.99999999996
29.056	2464
29.064	2361
29.072	2254
29.08	2144.99999999995
29.088	2035
29.096	1924
29.104	1815
29.112	1712.99999999996
29.12	1617
29.128	1531
29.136	1456
29.144	1390.99999999997
29.152	1340
29.16	1303
29.168	1278
29.176	1263
29.184	1261
29.192	1268
29.2	1281
29.208	1300.00000000001
29.216	1322
29.224	1345
29.232	1367
29.24	1386.00000000001
29.248	1402
29.256	1414
29.264	1422
29.272	1426
29.28	1426
29.288	1422
29.296	1415
29.304	1406
29.312	1393
29.32	1379
29.328	1364
29.336	1347.99999999999
29.344	1332
29.352	1314
29.36	1296
29.368	1279.99999999999
29.376	1264
29.384	1249
29.392	1236
29.4	1222.99999999999
29.408	1211
29.416	1200
29.424	1190
29.432	1180
29.44	1170
29.448	1162
29.456	1155
29.464	1148
29.472	1141
29.48	1135
29.488	1129
29.496	1122
29.504	1113
29.512	1105
29.52	1097
29.528	1089
29.536	1081
29.544	1072
29.552	1062
29.56	1052
29.568	1043
29.576	1041
29.584	1046
29.592	1062.00000000001
29.6	1101
29.608	1175
29.616	1279
29.624	1410.00000000006
29.632	1572
29.64	1760
29.648	1963
29.656	2170.00000000009
29.664	2371
29.672	2552
29.68	2709
29.688	2841.00000000005
29.696	2940
29.704	3002
29.712	3034
29.72	3042
29.728	3025
29.736	2988
29.744	2935
29.752	2873
29.76	2801
29.768	2720
29.776	2633
29.784	2541
29.792	2442
29.8	2337
29.808	2230
29.816	2121
29.824	2011
29.832	1901
29.84	1793
29.848	1691
29.856	1599
29.864	1519
29.872	1450
29.88	1392
29.888	1348
29.896	1318
29.904	1300
29.912	1292
29.92	1293
29.928	1302
29.936	1317
29.944	1337
29.952	1358
29.96	1378
29.968	1397
29.976	1414
29.984	1427
29.992	1436
30	1441
30.008	1444
30.016	1442
30.024	1436
30.032	1427
30.04	1416
30.048	1402.99999999999
30.056	1389
30.064	1373
30.072	1356
30.08	1337.99999999999
30.088	1320
30.096	1302
30.104	1286
30.112	1270.99999999999
30.12	1256
30.128	1241
30.136	1227
30.144	1213.99999999999
30.152	1202
30.16	1191
30.168	1182
30.176	1173
30.184	1165
30.192	1156
30.2	1147
30.208	1140
30.216	1132
30.224	1124
30.232	1116
30.24	1108
30.248	1100
30.256	1091
30.264	1083
30.272	1075
30.28	1066
30.288	1057
30.296	1048
30.304	1039
30.312	1040
30.32	1052
30.328	1080
30.336	1135.00000000003
30.344	1226
30.352	1347
30.36	1495
30.368	1672.00000000008
30.376	1868
30.384	2074
30.392	2279
30.4	2471.00000000008
30.408	2638
30.416	2780
30.424	2896
30.432	2978.00000000003
30.44	3024
30.448	3041
30.456	3036
30.464	3008.99999999998
30.472	2964
30.48	2904
30.488	2836
30.496	2758.99999999996
30.504	2674
30.512	2583
30.52	2488
30.528	2386.99999999995
30.536	2281
30.544	2172
30.552	2062
30.56	1950.99999999995
30.568	1842
30.576	1737
30.584	1640
30.592	1551.99999999996
30.6	1477
30.608	1414
30.616	1362
30.624	1323.99999999999
30.632	1299
30.64	1286
30.648	1283
30.656	1291
30.664	1305
30.672	1323
30.68	1344
30.688	1366.00000000001
30.696	1387
30.704	1406
30.712	1422
30.72	1434
30.728	1440
30.736	1442
30.744	1442
30.752	1439
30.76	1433
30.768	1424
30.776	1411
30.784	1397
30.792	1382
30.8	1365
30.808	1348
30.816	1330
30.824	1312
30.832	1294
30.84	1277
30.848	1262
30.856	1247
30.864	1233
30.872	1221
30.88	1210
30.888	1198
30.896	1187
30.904	1178
30.912	1168
30.92	1158
30.928	1149
30.936	1141
30.944	1133
30.952	1124
30.96	1114
30.968	1105
30.976	1097
30.984	1088
30.992	1078
31	1068
31.008	1057
31.016	1045.99999999999
31.024	1034
31.032	1023
31.04	1017
31.048	1022
31.056	1038
31.064	1072
31.072	1136
31.08	1237.00000000005
31.088	1370
31.096	1528
31.104	1711
31.112	1909.00000000009
31.12	2114
31.128	2315
31.136	2501
31.144	2660.00000000006
31.152	2792
31.16	2897
31.168	2968
31.176	3004.00000000001
31.184	3013
31.192	3002
31.2	2970
31.208	2918.99999999997
31.216	2857
31.224	2787
31.232	2708
31.24	2619.99999999996
31.248	2526
31.256	2428
31.264	2324
31.272	2214.99999999995
31.28	2104
31.288	1991
31.296	1879
31.304	1770.99999999995
31.312	1668
31.32	1573
31.328	1490
31.336	1418.99999999997
31.344	1361
31.352	1314
31.36	1280
31.368	1259.99999999999
31.376	1252
31.384	1254
31.392	1264
31.4	1280.00000000001
31.408	1301
31.416	1325
31.424	1349
31.432	1370.00000000001
31.44	1388
31.448	1404
31.456	1416
31.464	1423
31.472	1426
31.48	1426
31.488	1422
31.496	1413
31.504	1403
31.512	1392
31.52	1377
31.528	1359.99999999999
31.536	1342
31.544	1325
31.552	1309
31.56	1291.99999999999
31.568	1274
31.576	1258
31.584	1243
31.592	1228.99999999999
31.6	1216
31.608	1204
31.616	1193
31.624	1183
31.632	1173
31.64	1163
31.648	1154
31.656	1145
31.664	1137
31.672	1130
31.68	1122
31.688	1113
31.696	1105
31.704	1097
31.712	1089
31.72	1081
31.728	1074
31.736	1067
31.744	1059
31.752	1049
31.76	1039
31.768	1030
31.776	1024
31.784	1029
31.792	1047
31.8	1083
31.808	1147
31.816	1247
31.824	1378
31.832	1534
31.84	1814
31.848	2015
31.856	2216
31.864	2577
31.872	2721
31.88	2837
31.888	2975
31.896	2996
31.904	2994
31.912	2928
31.92	2870
31.928	2802
31.936	2686
31.944	2597
31.952	2503
31.96	2406
31.968	2303
31.976	2194
31.984	2082
31.992	1971
32	1861
32.008	1755
32.016	1655
32.024	1563
32.032	1480.99999999993
32.04	1412
32.048	1355
32.056	1310
32.064	1279
32.072	1263
32.08	1258
32.088	1261
32.096	1273.00000000001
32.104	1291
32.112	1312
32.12	1334
32.128	1356
32.136	1376
32.144	1394
32.152	1410
32.16	1422.00000000001
32.168	1428
32.176	1430
32.184	1429
32.192	1425
32.2	1417
32.208	1406
32.216	1393
32.224	1377.99999999999
32.232	1361
32.24	1345
32.248	1328
32.256	1310
32.264	1292
32.272	1274
32.28	1258
32.288	1243.99999999999
32.296	1229
32.304	1215
32.312	1203
32.32	1192
32.328	1181
32.336	1171
32.344	1162
32.352	1152.99999999999
32.36	1145
32.368	1138
32.376	1131
32.384	1124
32.392	1116
32.4	1109
32.408	1104
32.416	1097.99999999999
32.424	1090
32.432	1081
32.44	1073
32.448	1065
32.456	1056
32.464	1045
32.472	1036
32.48	1031
32.488	1038
32.496	1058
32.504	1096
32.512	1163
32.52	1267
32.528	1401
32.536	1560
32.544	1744.00000000017
32.552	1943
32.56	2148
32.568	2347
32.576	2530
32.584	2684
32.592	2811
32.6	2912
32.608	2978.00000000004
32.616	3009
32.624	3014
32.632	2999
32.64	2965
32.648	2913
32.656	2849
32.664	2777
32.672	2696.99999999993
32.68	2609
32.688	2515
32.696	2417
32.704	2313
32.712	2204
32.72	2092
32.728	1981
32.736	1871.9999999999
32.744	1766
32.752	1665
32.76	1572
32.768	1490
32.776	1421
32.784	1364
32.792	1319
32.8	1289
32.808	1272
32.816	1266
32.824	1269
32.832	1280
32.84	1297
32.848	1319
32.856	1342
32.864	1365
32.872	1387
32.88	1406
32.888	1421
32.896	1433
32.904	1440
32.912	1441
32.92	1440
32.928	1435
32.936	1426
32.944	1414
32.952	1400
32.96	1384
32.968	1368
32.976	1351
32.984	1334
32.992	1316
33	1299
33.008	1284
33.016	1267
33.024	1251
33.032	1236.99999999999
33.04	1224
33.048	1211
33.056	1199
33.064	1188
33.072	1178
33.08	1169
33.088	1162
33.096	1153.99999999999
33.104	1146
33.112	1139
33.12	1132
33.128	1124
33.136	1116
33.144	1108
33.152	1100
33.16	1091.99999999999
33.168	1084
33.176	1077
33.184	1071
33.192	1063
33.2	1053
33.208	1043
33.216	1037
33.224	1043.00000000001
33.232	1062
33.24	1098
33.248	1164
33.256	1267
33.264	1401
33.272	1561
33.28	1747
33.288	1947.00000000018
33.296	2152
33.304	2352
33.312	2535
33.32	2690
33.328	2818
33.336	2919
33.344	2986
33.352	3017.00000000001
33.36	3022
33.368	3006
33.376	2970
33.384	2917
33.392	2852
33.4	2779
33.408	2699
33.416	2610.99999999992
33.424	2518
33.432	2420
33.44	2316
33.448	2208
33.456	2098
33.464	1987
33.472	1878
33.48	1772.99999999991
33.488	1674
33.496	1581
33.504	1498
33.512	1427
33.52	1369
33.528	1323
33.536	1291
33.544	1272.99999999999
33.552	1266
33.56	1267
33.568	1277
33.576	1293
33.584	1314
33.592	1336
33.6	1358
33.608	1379.00000000002
33.616	1398
33.624	1413
33.632	1425
33.64	1432
33.648	1433
33.656	1432
33.664	1427
33.672	1418.99999999999
33.68	1409
33.688	1397
33.696	1383
33.704	1368
33.712	1351
33.72	1334
33.728	1317
33.736	1299.99999999998
33.744	1282
33.752	1266
33.76	1251
33.768	1236
33.776	1221
33.784	1208
33.792	1197
33.8	1188
33.808	1178
33.816	1169
33.824	1160
33.832	1150
33.84	1142
33.848	1135
33.856	1128
33.864	1120
33.872	1112
33.88	1105
33.888	1099
33.896	1092
33.904	1084
33.912	1076
33.92	1068
33.928	1060
33.936	1051
33.944	1041
33.952	1034
33.96	1036
33.968	1048
33.976	1076
33.984	1131
33.992	1224
34	1348
34.008	1497
34.016	1675
34.024	1873
34.032	2080.00000000018
34.04	2283
34.048	2473
34.056	2638
34.064	2777
34.072	2890
34.08	2968
34.088	3011
34.096	3027
34.104	3021
34.112	2992
34.12	2944
34.128	2883
34.136	2813
34.144	2735
34.152	2648
34.16	2554.99999999992
34.168	2460
34.176	2358
34.184	2250
34.192	2139
34.2	2029
34.208	1919
34.216	1811
34.224	1706.99999999991
34.232	1610
34.24	1524
34.248	1451
34.256	1390
34.264	1338
34.272	1299
34.28	1276
34.288	1264
34.296	1261
34.304	1268
34.312	1282
34.32	1300
34.328	1321
34.336	1344
34.344	1365
34.352	1386.00000000002
34.36	1403
34.368	1415
34.376	1422
34.384	1426
34.392	1427
34.4	1424
34.408	1417
34.416	1407.99999999999
34.424	1396
34.432	1382
34.44	1366
34.448	1349
34.456	1332
34.464	1313
34.472	1295
34.48	1277.99999999998
34.488	1261
34.496	1246
34.504	1231
34.512	1218
34.52	1206
34.528	1194
34.536	1183
34.544	1173.99999999999
34.552	1165
34.56	1156
34.568	1146
34.576	1138
34.584	1131
34.592	1124
34.6	1116
34.608	1107.99999999999
34.616	1101
34.624	1095
34.632	1088
34.64	1080
34.648	1072
34.656	1064
34.664	1056
34.672	1046.99999999999
34.68	1037
34.688	1028
34.696	1027
34.704	1036
34.712	1058
34.72	1106
34.728	1189
34.736	1303.00000000011
34.744	1444
34.752	1615
34.76	1810
34.768	2017
34.776	2224
34.784	2420
34.792	2593
34.8	2741.00000000012
34.808	2864
34.816	2953
34.824	3005
34.832	3027
34.84	3026
34.848	3001
34.856	2957
34.864	2899
34.872	2831
34.88	2754
34.888	2668
34.896	2577
34.904	2483
34.912	2384
34.92	2279
34.928	2171
34.936	2061
34.944	1950
34.952	1841
34.96	1737
34.968	1639
34.976	1549
34.984	1472
34.992	1407
35	1353
35.008	1311
35.016	1284
35.024	1268
35.032	1261
35.04	1265
35.048	1276
35.056	1293
35.064	1315
35.072	1337
35.08	1358
35.088	1378
35.096	1396.00000000001
35.104	1410
35.112	1419
35.12	1426
35.128	1429
35.136	1427
35.144	1420
35.152	1409
35.16	1397.99999999999
35.168	1385
35.176	1370
35.184	1353
35.192	1337
35.2	1321
35.208	1304
35.216	1285
35.224	1267.99999999998
35.232	1251
35.24	1235
35.248	1220
35.256	1205
35.264	1193
35.272	1182
35.28	1171
35.288	1160.99999999999
35.296	1151
35.304	1143
35.312	1136
35.32	1129
35.328	1124
35.336	1118
35.344	1111
35.352	1105
35.36	1100
35.368	1093
35.376	1085
35.384	1078
35.392	1072
35.4	1065
35.408	1057
35.416	1048.99999999999
35.424	1041
35.432	1038
35.44	1041
35.448	1055
35.456	1090
35.464	1157
35.472	1255
35.48	1381.00000000012
35.488	1540
35.496	1726
35.504	1929
35.512	2137
35.52	2340
35.528	2525
35.536	2689
35.544	2827.00000000011
35.552	2932
35.56	2999
35.568	3036
35.576	3049
35.584	3037
35.592	3001
35.6	2949
35.608	2886.99999999994
35.616	2814
35.624	2732
35.632	2644
35.64	2551
35.648	2454
35.656	2350
35.664	2243
35.672	2135.9999999999
35.68	2026
35.688	1917
35.696	1811
35.704	1709
35.712	1615
35.72	1532
35.728	1458
35.736	1394.99999999995
35.744	1346
35.752	1311
35.76	1290
35.768	1279
35.776	1279
35.784	1287
35.792	1302
35.8	1320.00000000002
35.808	1341
35.816	1364
35.824	1385
35.832	1404
35.84	1420
35.848	1433
35.856	1442
35.864	1447
35.872	1448
35.88	1444
35.888	1437
35.896	1427
35.904	1414
35.912	1398
35.92	1381
35.928	1365
35.936	1348
35.944	1329
35.952	1311
35.96	1294
35.968	1277
35.976	1261
35.984	1246
35.992	1232
36	1219
36.008	1207
36.016	1195
36.024	1184
36.032	1173.99999999999
36.04	1165
36.048	1157
36.056	1149
36.064	1142
36.072	1135
36.08	1128
36.088	1120
36.096	1111.99999999999
36.104	1104
36.112	1097
36.12	1091
36.128	1084
36.136	1075
36.144	1066
36.152	1056
36.16	1044.99999999999
36.168	1037
36.176	1034
36.184	1040
36.192	1064
36.2	1117
36.208	1198
36.216	1305
36.224	1448.00000000014
36.232	1623
36.24	1819
36.248	2025
36.256	2233
36.264	2428
36.272	2605
36.28	2760
36.288	2882.00000000009
36.296	2966
36.304	3020
36.312	3049
36.32	3049
36.328	3023
36.336	2979
36.344	2923
36.352	2854.99999999993
36.36	2776
36.368	2691
36.376	2603
36.384	2508
36.392	2406
36.4	2301
36.408	2195
36.416	2083.9999999999
36.424	1970
36.432	1859
36.44	1753
36.448	1653
36.456	1563
36.464	1483
36.472	1413
36.48	1355.99999999996
36.488	1314
36.496	1285
36.504	1267
36.512	1260
36.52	1263
36.528	1276
36.536	1294
36.544	1316.00000000002
36.552	1340
36.56	1363
36.568	1386
36.576	1405
36.584	1419
36.592	1430
36.6	1437
36.608	1440
36.616	1437
36.624	1431
36.632	1424
36.64	1414
36.648	1401
36.656	1387
36.664	1372
36.672	1353.99999999998
36.68	1335
36.688	1318
36.696	1300
36.704	1282
36.712	1265
36.72	1251
36.728	1237
36.736	1222.99999999999
36.744	1212
36.752	1201
36.76	1190
36.768	1178
36.776	1167
36.784	1159
36.792	1152
36.8	1143.99999999999
36.808	1136
36.816	1129
36.824	1123
36.832	1116
36.84	1108
36.848	1100
36.856	1093
36.864	1086.99999999999
36.872	1079
36.88	1070
36.888	1060
36.896	1049
36.904	1040
36.912	1033
36.92	1033
36.928	1046
36.936	1084
36.944	1148
36.952	1237
36.96	1360
36.968	1517
36.976	1699
36.984	1895
36.992	2099
37	2296
37.008	2481
37.016	2648
37.024	2786
37.032	2888.00000000007
37.04	2959
37.048	3005
37.056	3020
37.064	3007
37.072	2975
37.08	2928
37.088	2866
37.096	2792.99999999993
37.104	2713
37.112	2627
37.12	2534
37.128	2433
37.136	2329
37.144	2223
37.152	2114
37.16	2001.9999999999
37.168	1891
37.176	1784
37.184	1681
37.192	1588
37.2	1504
37.208	1430
37.216	1368
37.224	1319.99999999996
37.232	1285
37.24	1263
37.248	1252
37.256	1250
37.264	1258
37.272	1273
37.28	1294
37.288	1316.00000000002
37.296	1338
37.304	1360
37.312	1379
37.32	1395
37.328	1408
37.336	1417
37.344	1423
37.352	1424
37.36	1420
37.368	1414
37.376	1405
37.384	1393
37.392	1380
37.4	1366
37.408	1351
37.416	1334.99999999999
37.424	1318
37.432	1301
37.44	1284
37.448	1266
37.456	1249
37.464	1234
37.472	1220
37.48	1206.99999999999
37.488	1196
37.496	1186
37.504	1177
37.512	1169
37.52	1161
37.528	1152
37.536	1142
37.544	1132.99999999999
37.552	1126
37.56	1120
37.568	1114
37.576	1107
37.584	1101
37.592	1095
37.6	1088
37.608	1079.99999999999
37.616	1072
37.624	1064
37.632	1055
37.64	1046
37.648	1038
37.656	1035
37.664	1042
37.672	1070.00000000003
37.68	1121
37.688	1196
37.696	1304
37.704	1449
37.712	1622
37.72	1810
37.728	2010
37.736	2209.00000000017
37.744	2400
37.752	2575
37.76	2725
37.768	2840
37.776	2924
37.784	2982
37.792	3007
37.8	3001.99999999999
37.808	2976
37.816	2935
37.824	2879
37.832	2810
37.84	2733
37.848	2652
37.856	2563
37.864	2466.99999999991
37.872	2366
37.88	2261
37.888	2152
37.896	2040
37.904	1929
37.912	1821
37.92	1717
37.928	1621
37.936	1534
37.944	1456
37.952	1390
37.96	1339
37.968	1301
37.976	1274
37.984	1260
37.992	1258
38	1265
38.008	1278
38.016	1296
38.024	1318
38.032	1341.00000000002
38.04	1365
38.048	1388
38.056	1406
38.064	1420
38.072	1431
38.08	1438
38.088	1439
38.096	1436
38.104	1430
38.112	1422
38.12	1412
38.128	1400
38.136	1385
38.144	1369
38.152	1353
38.16	1335.99999999998
38.168	1317
38.176	1299
38.184	1282
38.192	1265
38.2	1250
38.208	1236
38.216	1223
38.224	1210.99999999999
38.232	1199
38.24	1189
38.248	1180
38.256	1171
38.264	1164
38.272	1156
38.28	1148
38.288	1139.99999999999
38.296	1132
38.304	1124
38.312	1116
38.32	1110
38.328	1105
38.336	1099
38.344	1092
38.352	1083.99999999999
38.36	1075
38.368	1065
38.376	1055
38.384	1046
38.392	1039
38.4	1042
38.408	1065
38.416	1108.00000000005
38.424	1173
38.432	1273
38.44	1410
38.448	1575
38.456	1759
38.464	1958
38.472	2159
38.48	2355.00000000017
38.488	2537
38.496	2694
38.504	2816
38.512	2908
38.52	2974
38.528	3008
38.536	3012
38.544	2993.99999999998
38.552	2959
38.56	2908
38.568	2843
38.576	2770
38.584	2689
38.592	2601
38.6	2506
38.608	2404.99999999991
38.616	2302
38.624	2195
38.632	2084
38.64	1971
38.648	1861
38.656	1755
38.664	1657
38.672	1565.99999999992
38.68	1484
38.688	1415
38.696	1360
38.704	1317
38.712	1285
38.72	1266
38.728	1260
38.736	1264.00000000001
38.744	1275
38.752	1293
38.76	1315
38.768	1338
38.776	1361
38.784	1383
38.792	1401
38.8	1417.00000000001
38.808	1430
38.816	1437
38.824	1440
38.832	1439
38.84	1436
38.848	1428
38.856	1416
38.864	1402.99999999999
38.872	1390
38.88	1374
38.888	1356
38.896	1339
38.904	1324
38.912	1307
38.92	1290
38.928	1273
38.936	1257
38.944	1242
38.952	1228
38.96	1215
38.968	1204
38.976	1193
38.984	1183
38.992	1174
39	1165
39.008	1157
39.016	1149
39.024	1141
39.032	1132.99999999999
39.04	1125
39.048	1117
39.056	1110
39.064	1103
39.072	1097
39.08	1090
39.088	1082
39.096	1074.99999999999
39.104	1067
39.112	1057
39.12	1047
39.128	1041
39.136	1044
39.144	1065
39.152	1106
39.16	1168.00000000007
39.168	1263
39.176	1396
39.184	1557
39.192	1739
39.2	1937
39.208	2138
39.216	2334
39.224	2517.00000000015
39.232	2676
39.24	2802
39.248	2900
39.256	2970
39.264	3007
39.272	3013
39.28	2997
39.288	2964.99999999996
39.296	2914
39.304	2848
39.312	2774
39.32	2695
39.328	2610
39.336	2516
39.344	2416
39.352	2312.99999999991
39.36	2207
39.368	2098
39.376	1987
39.384	1877
39.392	1771
39.4	1672
39.408	1580
39.416	1496.99999999993
39.424	1426
39.432	1369
39.44	1324
39.448	1290
39.456	1270
39.464	1262
39.472	1264
39.48	1273.00000000001
39.488	1288
39.496	1307
39.504	1330
39.512	1353
39.52	1376
39.528	1394
39.536	1409
39.544	1423.00000000001
39.552	1432
39.56	1434
39.568	1433
39.576	1431
39.584	1425
39.592	1415
39.6	1402
39.608	1386.99999999999
39.616	1372
39.624	1355
39.632	1338
39.64	1321
39.648	1304
39.656	1286
39.664	1269
39.672	1253.99999999999
39.68	1239
39.688	1225
39.696	1212
39.704	1200
39.712	1190
39.72	1180
39.728	1170
39.736	1160.99999999999
39.744	1153
39.752	1145
39.76	1137
39.768	1129
39.776	1122
39.784	1115
39.792	1108
39.8	1099.99999999999
39.808	1093
39.816	1086
39.824	1078
39.832	1070
39.84	1060
39.848	1050
39.856	1040
39.864	1033
39.872	1035
39.88	1054
39.888	1091
39.896	1151
39.904	1244
39.912	1373
39.92	1532
39.928	1711.00000000017
39.936	1908
39.944	2110
39.952	2308
39.96	2493
39.968	2655
39.976	2784
39.984	2884
39.992	2957
40	2999
40.008	3009
40.016	2995
40.024	2965
40.032	2915.99999999995
40.04	2851
40.048	2778
40.056	2699
40.064	2614
40.072	2520
40.08	2421
40.088	2320
40.096	2213.9999999999
40.104	2104
40.112	1993
40.12	1884
40.128	1778
40.136	1679
40.144	1587
40.152	1502
40.16	1427.99999999994
40.168	1369
40.176	1322
40.184	1286
40.192	1264
40.2	1255
40.208	1256
40.216	1264
40.224	1279.00000000001
40.232	1298
40.24	1320
40.248	1343
40.256	1364
40.264	1382
40.272	1398
40.28	1411
40.288	1421.00000000001
40.296	1425
40.304	1425
40.312	1423
40.32	1417
40.328	1408
40.336	1396
40.344	1382
40.352	1366.99999999999
40.36	1351
40.368	1334
40.376	1317
40.384	1300
40.392	1282
40.4	1265
40.408	1250
40.416	1235.99999999999
40.424	1223
40.432	1211
40.44	1200
40.448	1189
40.456	1179
40.464	1170
40.472	1161
40.48	1152.99999999999
40.488	1145
40.496	1137
40.504	1129
40.512	1121
40.52	1114
40.528	1107
40.536	1100
40.544	1091.99999999999
40.552	1084
40.56	1076
40.568	1068
40.576	1059
40.584	1049
40.592	1039
40.6	1033
40.608	1033
40.616	1049
40.624	1084
40.632	1141
40.64	1232
40.648	1358
40.656	1513
40.664	1691
40.672	1888.00000000018
40.68	2090
40.688	2289
40.696	2477
40.704	2642
40.712	2774
40.72	2877
40.728	2953
40.736	2997.00000000002
40.744	3009
40.752	2997
40.76	2968
40.768	2920
40.776	2858
40.784	2787
40.792	2710
40.8	2625.99999999992
40.808	2535
40.816	2439
40.824	2339
40.832	2234
40.84	2124
40.848	2014
40.856	1905
40.864	1797.99999999991
40.872	1697
40.88	1604
40.888	1519
40.896	1446
40.904	1386
40.912	1338
40.92	1301
40.928	1277.99999999999
40.936	1268
40.944	1268
40.952	1274
40.96	1287
40.968	1305
40.976	1325
40.984	1347
40.992	1369
41	1388
41.008	1404
41.016	1417
41.024	1426
41.032	1430
41.04	1430
41.048	1427
41.056	1421
41.064	1411
41.072	1399
41.08	1386
41.088	1371
41.096	1354.99999999999
41.104	1338
41.112	1321
41.12	1305
41.128	1288
41.136	1270
41.144	1254
41.152	1239
41.16	1223.99999999999
41.168	1210
41.176	1199
41.184	1190
41.192	1180
41.2	1171
41.208	1164
41.216	1155
41.224	1145.99999999999
41.232	1137
41.24	1129
41.248	1121
41.256	1113
41.264	1106
41.272	1100
41.28	1094
41.288	1086.99999999999
41.296	1080
41.304	1072
41.312	1063
41.32	1053
41.328	1043
41.336	1036
41.344	1035
41.352	1050.00000000002
41.36	1082
41.368	1136
41.376	1222
41.384	1346
41.392	1500
41.4	1676
41.408	1873
41.416	2078.00000000018
41.424	2280
41.432	2472
41.44	2642
41.448	2779
41.456	2887
41.464	2968
41.472	3016
41.48	3032
41.488	3023
41.496	2996
41.504	2950
41.512	2889
41.52	2820
41.528	2744
41.536	2660
41.544	2567.99999999992
41.552	2472
41.56	2372
41.568	2267
41.576	2158
41.584	2045
41.592	1934
41.6	1825
41.608	1722.99999999991
41.616	1628
41.624	1540
41.632	1463
41.64	1400
41.648	1349
41.656	1310
41.664	1284
41.672	1272
41.68	1270
41.688	1276
41.696	1291
41.704	1312
41.712	1335
41.72	1360
41.728	1383
41.736	1403.00000000002
41.744	1421
41.752	1437
41.76	1447
41.768	1452
41.776	1453
41.784	1451
41.792	1445
41.8	1435.99999999999
41.808	1424
41.816	1409
41.824	1393
41.832	1377
41.84	1361
41.848	1344
41.856	1326
41.864	1308.99999999999
41.872	1294
41.88	1279
41.888	1263
41.896	1247
41.904	1233
41.912	1221
41.92	1210
41.928	1198.99999999999
41.936	1190
41.944	1181
41.952	1173
41.96	1165
41.968	1157
41.976	1149
41.984	1142
41.992	1134
42	1126
42.008	1119
42.016	1111
42.024	1102
42.032	1093.99999999999
42.04	1087
42.048	1079
42.056	1069
42.064	1059
42.072	1052
42.08	1058
42.088	1080
42.096	1120.00000000006
42.104	1285
42.112	1420
42.12	1582
42.128	1860
42.136	2061
42.144	2263
42.152	2456
42.16	2698.00000000015
42.168	2825
42.176	2923
42.184	3024
42.192	3029
42.2	3013
42.208	2959
42.216	2901
42.224	2831.99999999994
42.232	2756
42.24	2673
42.248	2584
42.256	2489
42.264	2391
42.272	2288
42.28	2179
42.288	2068.9999999999
42.296	1960
42.304	1852
42.312	1750
42.32	1655
42.328	1567
42.336	1489
42.344	1426
42.352	1373.99999999996
42.36	1332
42.368	1304
42.376	1289
42.384	1285
42.392	1290
42.4	1302
42.408	1319
42.416	1340.00000000002
42.424	1362
42.432	1384
42.44	1403
42.448	1420
42.456	1433
42.464	1443
42.472	1449
42.48	1450
42.488	1448
42.496	1443
42.504	1435
42.512	1425
42.52	1413
42.528	1399
42.536	1383
42.544	1364.99999999998
42.552	1347
42.56	1330
42.568	1313
42.576	1297
42.584	1281
42.592	1265
42.6	1250
42.608	1235.99999999999
42.616	1223
42.624	1212
42.632	1202
42.64	1193
42.648	1184
42.656	1175
42.664	1168
42.672	1160.99999999999
42.68	1154
42.688	1145
42.696	1137
42.704	1129
42.712	1120
42.72	1110
42.728	1101
42.736	1092.99999999999
42.744	1086
42.752	1079
42.76	1071
42.768	1062
42.776	1055
42.784	1055
42.792	1068
42.8	1094.00000000003
42.808	1140
42.816	1217
42.824	1331
42.832	1475
42.84	1642
42.848	1831
42.856	2030
42.864	2228.00000000017
42.872	2418
42.88	2590
42.888	2732
42.896	2845
42.904	2931
42.912	2983
42.92	3003
42.928	2998.99999999999
42.936	2976
42.944	2933
42.952	2875
42.96	2806
42.968	2730
42.976	2648
42.984	2559
42.992	2465.99999999992
43	2368
43.008	2265
43.016	2159
43.024	2051
43.032	1942.9999999999
43.04	1836
43.048	1734
43.056	1639
43.064	1553
43.072	1478
43.08	1414
43.088	1361
43.096	1320.99999999997
43.104	1294
43.112	1279
43.12	1276
43.128	1280
43.136	1291
43.144	1308
43.152	1329
43.16	1353.00000000002
43.168	1376
43.176	1396
43.184	1414
43.192	1429
43.2	1439
43.208	1443
43.216	1443
43.224	1440
43.232	1434
43.24	1425
43.248	1412
43.256	1396
43.264	1380
43.272	1363
43.28	1346
43.288	1327.99999999998
43.296	1310
43.304	1293
43.312	1277
43.32	1262
43.328	1247
43.336	1234
43.344	1222
43.352	1209.99999999999
43.36	1200
43.368	1191
43.376	1182
43.384	1174
43.392	1166
43.4	1157
43.408	1150
43.416	1142.99999999999
43.424	1136
43.432	1128
43.44	1120
43.448	1112
43.456	1104
43.464	1096
43.472	1088
43.48	1079.99999999999
43.488	1071
43.496	1062
43.504	1053
43.512	1046
43.52	1044
43.528	1055
43.536	1081
43.544	1126.00000000005
43.552	1200
43.56	1310
43.568	1450
43.576	1613
43.584	1798
43.592	1993
43.6	2190
43.608	2379.00000000016
43.616	2551
43.624	2694
43.632	2809
43.64	2900
43.648	2958
43.656	2981
43.664	2980
43.672	2960.99999999998
43.68	2923
43.688	2869
43.696	2804
43.704	2730
43.712	2649
43.72	2562
43.728	2468
43.736	2368.99999999991
43.744	2267
43.752	2161
43.76	2052
43.768	1943
43.776	1836
43.784	1734
43.792	1640
43.8	1553.99999999993
43.808	1478
43.816	1415
43.824	1364
43.832	1323
43.84	1296
43.848	1281
43.856	1278
43.864	1283.00000000001
43.872	1296
43.88	1314
43.888	1335
43.896	1358
43.904	1381
43.912	1402
43.92	1418
43.928	1431.00000000001
43.936	1441
43.944	1446
43.952	1447
43.96	1446
43.968	1440
43.976	1431
43.984	1419
43.992	1404.99999999999
44	1391
44.008	1376
44.016	1360
44.024	1344
44.032	1326.99999999998
44.04	1310
44.048	1294
44.056	1279
44.064	1265
44.072	1252
44.08	1239
44.088	1227
44.096	1214.99999999999
44.104	1204
44.112	1195
44.12	1188
44.128	1179
44.136	1171
44.144	1164
44.152	1156
44.16	1147.99999999999
44.168	1140
44.176	1132
44.184	1123
44.192	1115
44.2	1108
44.208	1101
44.216	1094
44.224	1084.99999999999
44.232	1076
44.24	1066
44.248	1059
44.256	1059
44.264	1073
44.272	1103
44.28	1153
44.288	1234.00000000009
44.296	1351
44.304	1497
44.312	1664
44.32	1851
44.328	2047
44.336	2242
44.344	2428
44.352	2595.00000000013
44.36	2733
44.368	2843
44.376	2927
44.384	2979
44.392	2999
44.4	2994
44.408	2969
44.416	2926.99999999996
44.424	2870
44.432	2802
44.44	2727
44.448	2645
44.456	2556
44.464	2461
44.472	2362
44.48	2257.99999999991
44.488	2150
44.496	2040
44.504	1932
44.512	1826
44.52	1725
44.528	1631
44.536	1545
44.544	1470.99999999994
44.552	1410
44.56	1360
44.568	1322
44.576	1299
44.584	1290
44.592	1289
44.6	1295
44.608	1309.00000000001
44.616	1329
44.624	1351
44.632	1373
44.64	1394
44.648	1411
44.656	1426
44.664	1438
44.672	1446
44.68	1449
44.688	1449
44.696	1447
44.704	1441
44.712	1432
44.72	1420
44.728	1406
44.736	1390.99999999999
44.744	1376
44.752	1360
44.76	1343
44.768	1326
44.776	1309
44.784	1294
44.792	1279
44.8	1263.99999999999
44.808	1249
44.816	1236
44.824	1224
44.832	1213
44.84	1203
44.848	1195
44.856	1188
44.864	1179.99999999999
44.872	1172
44.88	1164
44.888	1156
44.896	1148
44.904	1140
44.912	1133
44.92	1127
44.928	1119.99999999999
44.936	1112
44.944	1104
44.952	1096
44.96	1086
44.968	1075
44.976	1066
44.984	1058
44.992	1057
45	1074
45.008	1108
45.016	1163
45.024	1249
45.032	1371.00000000012
45.04	1523
45.048	1696
45.056	1888
45.064	2088
45.072	2287
45.08	2476
45.088	2643
45.096	2779.00000000011
45.104	2886
45.112	2966
45.12	3013
45.128	3028
45.136	3018
45.144	2990
45.152	2944
45.16	2882.99999999994
45.168	2812
45.176	2734
45.184	2650
45.192	2559
45.2	2463
45.208	2363
45.216	2258
45.224	2147.9999999999
45.232	2036
45.24	1926
45.248	1819
45.256	1719
45.264	1626
45.272	1540
45.28	1466
45.288	1405.99999999995
45.296	1358
45.304	1321
45.312	1298
45.32	1287
45.328	1287
45.336	1294
45.344	1307
45.352	1326.00000000002
45.36	1347
45.368	1370
45.376	1392
45.384	1411
45.392	1428
45.4	1441
45.408	1450
45.416	1453
45.424	1453
45.432	1450
45.44	1442
45.448	1432
45.456	1421
45.464	1409
45.472	1394
45.48	1376.99999999999
45.488	1361
45.496	1344
45.504	1326
45.512	1309
45.52	1292
45.528	1275
45.536	1261
45.544	1247.99999999999
45.552	1235
45.56	1224
45.568	1213
45.576	1203
45.584	1194
45.592	1185
45.6	1177
45.608	1167.99999999999
45.616	1159
45.624	1152
45.632	1144
45.64	1135
45.648	1126
45.656	1118
45.664	1112
45.672	1105.99999999999
45.68	1098
45.688	1090
45.696	1082
45.704	1073
45.712	1065
45.72	1059
45.728	1059
45.736	1075.00000000002
45.744	1109
45.752	1165
45.76	1253
45.768	1379
45.776	1535
45.784	1711
45.792	1906
45.8	2107.00000000018
45.808	2307
45.816	2496
45.824	2661
45.832	2795
45.84	2900
45.848	2977
45.856	3023
45.864	3036
45.872	3024
45.88	2995
45.888	2948
45.896	2886
45.904	2815
45.912	2738
45.92	2654
45.928	2561.99999999992
45.936	2465
45.944	2365
45.952	2260
45.96	2151
45.968	2040
45.976	1929
45.984	1822
45.992	1720.99999999991
46	1627
46.008	1542
46.016	1468
46.024	1406
46.032	1356.99999999996
46.04	1320
46.048	1296
46.056	1286
46.064	1286
46.072	1293
46.08	1307
46.088	1326
46.096	1347.00000000002
46.104	1370
46.112	1391
46.12	1409
46.128	1424
46.136	1436
46.144	1444
46.152	1447
46.16	1447
46.168	1443
46.176	1436
46.184	1426
46.192	1414
46.2	1401
46.208	1386
46.216	1368
46.224	1349.99999999998
46.232	1333
46.24	1317
46.248	1301
46.256	1285
46.264	1269
46.272	1254
46.28	1240
46.288	1227.99999999999
46.296	1217
46.304	1207
46.312	1197
46.32	1188
46.328	1179
46.336	1170
46.344	1161
46.352	1153.99999999999
46.36	1147
46.368	1139
46.376	1130
46.384	1122
46.392	1115
46.4	1108
46.408	1099
46.416	1089.99999999999
46.424	1081
46.432	1073
46.44	1065
46.448	1056
46.456	1048
46.464	1047
46.472	1063
46.48	1098.00000000004
46.488	1155
46.496	1245
46.504	1372
46.512	1528
46.52	1706
46.528	1903
46.536	2105
46.544	2305.00000000017
46.552	2496
46.56	2664
46.568	2800
46.576	2907
46.584	2986
46.592	3030
46.6	3042
46.608	3029.99999999998
46.616	3000
46.624	2952
46.632	2889
46.64	2817
46.648	2740
46.656	2655
46.664	2562
46.672	2463.99999999991
46.68	2363
46.688	2258
46.696	2148
46.704	2037
46.712	1927
46.72	1819
46.728	1718
46.736	1622.99999999992
46.744	1537
46.752	1463
46.76	1402
46.768	1352
46.776	1314
46.784	1289
46.792	1277
46.8	1276
46.808	1284
46.816	1299
46.824	1318
46.832	1340
46.84	1363
46.848	1385
46.856	1404
46.864	1418.00000000001
46.872	1430
46.88	1439
46.888	1443
46.896	1443
46.904	1439
46.912	1432
46.92	1422
46.928	1409.99999999999
46.936	1397
46.944	1382
46.952	1365
46.96	1348
46.968	1330
46.976	1312
46.984	1294
46.992	1276.99999999999
47	1262
47.008	1248
47.016	1235
47.024	1223
47.032	1210.99999999999
47.04	1201
47.048	1192
47.056	1181.99999999999
47.064	1173
47.072	1165
47.08	1157
47.088	1149
47.096	1140.99999999999
47.104	1133
47.112	1124
47.12	1115
47.128	1108
47.136	1099
47.144	1091
47.152	1084
47.16	1075.99999999999
47.168	1067
47.176	1057
47.184	1047
47.192	1041
47.2	1044
47.208	1064
47.216	1102
47.224	1161.00000000006
47.232	1253
47.24	1383
47.248	1543
47.256	1723
47.264	1921
47.272	2124
47.28	2323
47.288	2512.00000000016
47.296	2678
47.304	2812
47.312	2916
47.32	2992
47.328	3035
47.336	3046
47.344	3032
47.352	3001.99999999997
47.36	2955
47.368	2894
47.376	2823
47.384	2746
47.392	2661
47.4	2570
47.408	2474
47.416	2372.99999999991
47.424	2267
47.432	2157
47.44	2046
47.448	1935
47.456	1827
47.464	1726
47.472	1632
47.48	1546.99999999993
47.488	1474
47.496	1414
47.504	1366
47.512	1329
47.52	1306
47.528	1295
47.536	1294
47.544	1300.00000000001
47.552	1314
47.56	1333
47.568	1355
47.576	1377
47.584	1397
47.592	1414
47.6	1429
47.608	1441.00000000001
47.616	1448
47.624	1451
47.632	1452
47.64	1449
47.648	1442
47.656	1432
47.664	1419
47.672	1404.99999999999
47.68	1391
47.688	1375
47.696	1358
47.704	1341
47.712	1325
47.72	1309
47.728	1294
47.736	1279.99999999999
47.744	1266
47.752	1253
47.76	1242
47.768	1231
47.776	1221
47.784	1210
47.792	1199
47.8	1190.99999999999
47.808	1183
47.816	1173
47.824	1164
47.832	1156
47.84	1147
47.848	1138
47.856	1130
47.864	1122.99999999999
47.872	1116
47.88	1108
47.888	1100
47.896	1091
47.904	1081
47.912	1071
47.92	1062
47.928	1057
47.936	1063
47.944	1089
47.952	1135
47.96	1205
47.968	1309
47.976	1449
47.984	1618
47.992	1806.00000000017
48	2009
48.008	2214
48.016	2412
48.024	2595
48.032	2754.00000000012
48.04	2878
48.048	2970
48.056	3035.00000000004
48.064	3068
48.072	3069
48.08	3048
48.088	3010
48.096	2955.99999999995
48.104	2888
48.112	2812
48.12	2730.99999999993
48.128	2644
48.136	2549
48.144	2450
48.152	2346
48.16	2236.9999999999
48.168	2126
48.176	2014
48.184	1904
48.192	1798
48.2	1700
48.208	1610
48.216	1529
48.224	1459.99999999995
48.232	1405
48.24	1362
48.248	1328
48.256	1308
48.264	1301
48.272	1304
48.28	1313
48.288	1329.00000000002
48.296	1348
48.304	1368
48.312	1389
48.32	1409
48.328	1426
48.336	1440
48.344	1450
48.352	1455
48.36	1457
48.368	1456
48.376	1451
48.384	1443
48.392	1433
48.4	1420
48.408	1404
48.416	1387.99999999999
48.424	1372
48.432	1355
48.44	1338
48.448	1321
48.456	1305
48.464	1289
48.472	1274
48.48	1258.99999999999
48.488	1246
48.496	1234
48.504	1222
48.512	1210
48.52	1199
48.528	1191
48.536	1184
48.544	1174.99999999999
48.552	1166
48.56	1158
48.568	1150
48.576	1141
48.584	1133
48.592	1125
48.6	1117
48.608	1108.99999999999
48.616	1102
48.624	1095
48.632	1088
48.64	1078
48.648	1067
48.656	1059
48.664	1055
48.672	1062.00000000001
48.68	1090
48.688	1139
48.696	1213
48.704	1322
48.712	1467
48.72	1639
48.728	1828
48.736	2030.00000000018
48.744	2232
48.752	2426
48.76	2605
48.768	2758
48.776	2875
48.784	2962
48.792	3022
48.8	3051
48.808	3049
48.816	3024
48.824	2984
48.832	2929
48.84	2860
48.848	2781
48.856	2698
48.864	2608.99999999992
48.872	2513
48.88	2411
48.888	2305
48.896	2195
48.904	2082
48.912	1968
48.92	1858
48.928	1751.99999999991
48.936	1653
48.944	1562
48.952	1479
48.96	1411
48.968	1358
48.976	1315
48.984	1284
48.992	1265.99999999999
49	1260
49.008	1264
49.016	1275
49.024	1293
49.032	1316.00000000002
49.04	1341
49.048	1366
49.056	1389.00000000002
49.064	1410
49.072	1425
49.08	1437
49.088	1445
49.096	1447
49.104	1445
49.112	1441
49.12	1432.99999999999
49.128	1421
49.136	1407
49.144	1392
49.152	1375
49.16	1356.99999999998
49.168	1338
49.176	1319
49.184	1302
49.192	1285
49.2	1270
49.208	1254
49.216	1239
49.224	1226.99999999999
49.232	1215
49.24	1203
49.248	1192
49.256	1181
49.264	1170
49.272	1159
49.28	1149
49.288	1138.99999999999
49.296	1130
49.304	1121
49.312	1113
49.32	1106
49.328	1099
49.336	1092
49.344	1085
49.352	1077.99999999999
49.36	1070
49.368	1063
49.376	1054
49.384	1044
49.392	1036
49.4	1034
49.408	1045
49.416	1078.00000000004
49.424	1133
49.432	1213
49.44	1326
49.448	1474
49.456	1649
49.464	1840
49.472	2040
49.48	2238.00000000017
49.488	2426
49.496	2597
49.504	2742
49.512	2852
49.52	2933
49.528	2987
49.536	3010
49.544	3003.99999999999
49.552	2976
49.56	2934
49.568	2878
49.576	2809
49.584	2733
49.592	2650
49.6	2559
49.608	2462.99999999991
49.616	2362
49.624	2256
49.632	2146
49.64	2034
49.648	1921
49.656	1811
49.664	1707
49.672	1611.99999999992
49.68	1524
49.688	1446
49.696	1381
49.704	1331
49.712	1294
49.72	1268
49.728	1255
49.736	1254
49.744	1262
49.752	1277
49.76	1298
49.768	1321
49.776	1345
49.784	1369
49.792	1390
49.8	1406.00000000001
49.808	1420
49.816	1430
49.824	1435
49.832	1436
49.84	1434
49.848	1429
49.856	1420
49.864	1407.99999999999
49.872	1395
49.88	1382
49.888	1366
49.896	1349
49.904	1333
49.912	1316
49.92	1298
49.928	1280.99999999999
49.936	1265
49.944	1250
49.952	1236
49.96	1223
49.968	1211
49.976	1200
49.984	1189
49.992	1178.99999999999
50	1170
50.008	1162
50.016	1154
50.024	1145
50.032	1136.99999999999
50.04	1130
50.048	1123
50.056	1115.99999999999
50.064	1108
50.072	1100
50.08	1093
50.088	1086
50.096	1076.99999999999
50.104	1069
50.112	1060
50.12	1050.99999999999
50.128	1046
50.136	1047
50.144	1063
50.152	1105
50.16	1171.00000000007
50.168	1262
50.176	1387
50.184	1547
50.192	1731
50.2	1927
50.208	2130
50.216	2326
50.224	2509.00000000015
50.232	2674
50.24	2809
50.248	2908
50.256	2976
50.264	3019
50.272	3032
50.28	3017
50.288	2983.99999999997
50.296	2936
50.304	2873
50.312	2799
50.32	2719
50.328	2633
50.336	2540
50.344	2441
50.352	2337.99999999991
50.36	2232
50.368	2123
50.376	2011
50.384	1899
50.392	1792
50.4	1691
50.408	1599
50.416	1515.99999999993
50.424	1444
50.432	1386
50.44	1341
50.448	1309
50.456	1287
50.464	1277
50.472	1279
50.48	1289.00000000001
50.488	1305
50.496	1325
50.504	1346
50.512	1368
50.52	1390
50.528	1408
50.536	1422
50.544	1433.00000000001
50.552	1441
50.56	1444
50.568	1443
50.576	1440
50.584	1432
50.592	1421
50.6	1409
50.608	1395.99999999999
50.616	1382
50.624	1366
50.632	1348
50.64	1330
50.648	1313
50.656	1297
50.664	1281
50.672	1264.99999999999
50.68	1250
50.688	1236
50.696	1223
50.704	1211
50.712	1200
50.72	1190
50.728	1180
50.736	1169.99999999999
50.744	1162
50.752	1155
50.76	1147
50.768	1139
50.776	1132
50.784	1124
50.792	1116
50.8	1108.99999999999
50.808	1103
50.816	1096
50.824	1088
50.832	1080
50.84	1070
50.848	1058
50.856	1050
50.864	1048
50.872	1054
50.88	1077
50.888	1130
50.896	1209
50.904	1315
50.912	1455
50.92	1627
50.928	1820.00000000018
50.936	2022
50.944	2226
50.952	2418
50.96	2594
50.968	2748
50.976	2870
50.984	2955
50.992	3010.00000000003
51	3039
51.008	3041
51.016	3017
51.024	2975
51.032	2920.99999999995
51.04	2854
51.048	2777
51.056	2694.99999999992
51.064	2607
51.072	2512
51.08	2411
51.088	2307
51.096	2199.9999999999
51.104	2089
51.112	1977
51.12	1865.9999999999
51.128	1759
51.136	1660
51.144	1571
51.152	1494
51.16	1425.99999999995
51.168	1370
51.176	1329
51.184	1300.99999999998
51.192	1283
51.2	1276
51.208	1279
51.216	1291
51.224	1307.00000000002
51.232	1326
51.24	1346
51.248	1367
51.256	1389
51.264	1407
51.272	1420
51.28	1430
51.288	1437
51.296	1439
51.304	1436
51.312	1430
51.32	1422
51.328	1411
51.336	1398
51.344	1384
51.352	1368.99999999999
51.36	1352
51.368	1334
51.376	1317
51.384	1301
51.392	1285
51.4	1269
51.408	1253
51.416	1237.99999999999
51.424	1225
51.432	1214
51.44	1202
51.448	1190
51.456	1180
51.464	1171
51.472	1163
51.48	1154.99999999999
51.488	1147
51.496	1140
51.504	1132
51.512	1124
51.52	1117
51.528	1111
51.536	1104
51.544	1095.99999999999
51.552	1088
51.56	1079
51.568	1070
51.576	1061
51.584	1051
51.592	1042
51.6	1038
51.608	1044.00000000001
51.616	1068
51.624	1120
51.632	1199
51.64	1306
51.648	1447
51.656	1619
51.664	1811
51.672	2013.00000000018
51.68	2218
51.688	2411
51.696	2587
51.704	2742
51.712	2865
51.72	2951
51.728	3006
51.736	3035
51.744	3037
51.752	3013
51.76	2970
51.768	2915
51.776	2849
51.784	2772
51.792	2688
51.8	2599.99999999992
51.808	2506
51.816	2406
51.824	2302
51.832	2194
51.84	2083
51.848	1972
51.856	1861
51.864	1754.99999999991
51.872	1656
51.88	1566
51.888	1487
51.896	1419
51.904	1363
51.912	1322
51.92	1293
51.928	1274.99999999999
51.936	1269
51.944	1274
51.952	1285
51.96	1302
51.968	1322
51.976	1343
51.984	1366
51.992	1386.00000000002
52	1403
52.008	1418
52.016	1428
52.024	1433
52.032	1435
52.04	1434
52.048	1428
52.056	1419.99999999999
52.064	1410
52.072	1397
52.08	1383
52.088	1368
52.096	1350.99999999998
52.104	1334
52.112	1317
52.12	1299.99999999998
52.128	1282
52.136	1265
52.144	1250
52.152	1236
52.16	1223.99999999999
52.168	1213
52.176	1203
52.184	1193.99999999999
52.192	1184
52.2	1174
52.208	1165
52.216	1157
52.224	1148.99999999999
52.232	1140
52.24	1131
52.248	1124
52.256	1115
52.264	1107
52.272	1100
52.28	1092
52.288	1084.99999999999
52.296	1078
52.304	1069
52.312	1060
52.32	1049
52.328	1041
52.336	1037
52.344	1043
52.352	1068.00000000003
52.36	1120
52.368	1200
52.376	1309
52.384	1540
52.392	1724
52.4	1923
52.408	2326
52.416	2509.00000000015
52.424	2672
52.432	2913
52.44	2981
52.448	3022
52.456	3026
52.464	2992
52.472	2944
52.48	2849.99999999992
52.488	2772
52.496	2688
52.504	2600
52.512	2505
52.52	2404
52.528	2299
52.536	2192
52.544	2080.9999999999
52.552	1969
52.56	1859
52.568	1755
52.576	1658
52.584	1569
52.592	1490
52.6	1421
52.608	1365.99999999996
52.616	1325
52.624	1297
52.632	1279
52.64	1272
52.648	1275
52.656	1286
52.664	1302
52.672	1323.00000000002
52.68	1345
52.688	1367
52.696	1388
52.704	1405
52.712	1418
52.72	1427
52.728	1434
52.736	1436
52.744	1433
52.752	1428
52.76	1420
52.768	1409
52.776	1397
52.784	1382
52.792	1365
52.8	1347.99999999998
52.808	1329
52.816	1310
52.824	1292
52.832	1276
52.84	1260
52.848	1244
52.856	1229
52.864	1216.99999999999
52.872	1206
52.88	1194
52.888	1183
52.896	1174
52.904	1165
52.912	1157
52.92	1149
52.928	1140.99999999999
52.936	1133
52.944	1125
52.952	1117
52.96	1110
52.968	1103
52.976	1096
52.984	1088
52.992	1078.99999999999
53	1070
53.008	1061
53.016	1052
53.024	1042
53.032	1035
53.04	1032
53.048	1036
53.056	1056.00000000003
53.064	1105
53.072	1182
53.08	1284
53.088	1422
53.096	1593.00000000016
53.104	1787
53.112	1992
53.12	2199.00000000018
53.128	2395
53.136	2574
53.144	2731
53.152	2858
53.16	2948.00000000006
53.168	3007
53.176	3040
53.184	3044
53.192	3023
53.2	2983
53.208	2930
53.216	2864
53.224	2786.99999999993
53.232	2704
53.24	2616
53.248	2522.99999999991
53.256	2423
53.264	2318
53.272	2210
53.28	2098
53.288	1984.9999999999
53.296	1874
53.304	1767
53.312	1668
53.32	1577
53.328	1496
53.336	1425
53.344	1368
53.352	1325.99999999997
53.36	1296
53.368	1276
53.376	1268
53.384	1271
53.392	1283
53.4	1300
53.408	1321
53.416	1345.00000000002
53.424	1369
53.432	1391
53.44	1409
53.448	1424
53.456	1436
53.464	1444
53.472	1446
53.48	1443
53.488	1438
53.496	1430
53.504	1419
53.512	1406
53.52	1391
53.528	1376
53.536	1359
53.544	1340.99999999998
53.552	1323
53.56	1306
53.568	1288
53.576	1270
53.584	1254
53.592	1240
53.6	1226
53.608	1212.99999999999
53.616	1203
53.624	1193
53.632	1183
53.64	1174
53.648	1165
53.656	1157
53.664	1148
53.672	1137.99999999999
53.68	1130
53.688	1124
53.696	1118
53.704	1111
53.712	1105
53.72	1099
53.728	1093
53.736	1086.99999999999
53.744	1081
53.752	1073
53.76	1063
53.768	1055
53.776	1050
53.784	1052
53.792	1069
53.8	1113.00000000005
53.808	1182
53.816	1276
53.824	1406
53.832	1571
53.84	1761
53.848	1964
53.856	2172
53.864	2373.00000000017
53.872	2561
53.88	2728
53.888	2863
53.896	2961
53.904	3028
53.912	3068
53.92	3079
53.928	3062.99999999998
53.936	3027
53.944	2978
53.952	2915
53.96	2841
53.968	2759
53.976	2672
53.984	2578
53.992	2476.99999999991
54	2373
54.008	2267
54.016	2157
54.024	2045
54.032	1932.9999999999
54.04	1823
54.048	1719
54.056	1623.99999999992
54.064	1538
54.072	1462
54.08	1399
54.088	1352
54.096	1316.99999999997
54.104	1293
54.112	1281
54.12	1281
54.128	1290
54.136	1304
54.144	1322
54.152	1343
54.16	1366.00000000002
54.168	1387
54.176	1406
54.184	1421.00000000001
54.192	1434
54.2	1443
54.208	1448
54.216	1448
54.224	1444
54.232	1437
54.24	1427
54.248	1413.99999999999
54.256	1399
54.264	1384
54.272	1367
54.28	1349
54.288	1330.99999999998
54.296	1313
54.304	1296
54.312	1280
54.32	1264
54.328	1249
54.336	1236
54.344	1223
54.352	1211.99999999999
54.36	1202
54.368	1192
54.376	1182
54.384	1173
54.392	1165
54.4	1157
54.408	1148
54.416	1137.99999999999
54.424	1129
54.432	1121
54.44	1113
54.448	1105
54.456	1098
54.464	1091
54.472	1084
54.48	1075.99999999999
54.488	1068
54.496	1059
54.504	1050
54.512	1043
54.52	1044
54.528	1057
54.536	1094
54.544	1154.00000000006
54.552	1241
54.56	1365
54.568	1523
54.576	1705
54.584	1902
54.592	2107
54.6	2307
54.608	2495.00000000016
54.616	2664
54.624	2804
54.632	2909
54.64	2984
54.648	3032
54.656	3049
54.664	3038
54.672	3004.99999999997
54.68	2958
54.688	2898
54.696	2826
54.704	2746
54.712	2662
54.72	2572
54.728	2474
54.736	2370.99999999991
54.744	2266
54.752	2157
54.76	2046
54.768	1933
54.776	1823
54.784	1719
54.792	1623
54.8	1534.99999999993
54.808	1458
54.816	1394
54.824	1345
54.832	1310
54.84	1285
54.848	1272
54.856	1269
54.864	1276.00000000001
54.872	1290
54.88	1309
54.888	1330
54.896	1352
54.904	1374
54.912	1394
54.92	1411
54.928	1424.00000000001
54.936	1432
54.944	1435
54.952	1433
54.96	1427
54.968	1419
54.976	1408
54.984	1394
54.992	1378.99999999999
55	1363
55.008	1347
55.016	1332
55.024	1316
55.032	1299.99999999999
55.04	1285
55.048	1271
55.056	1256.99999999999
55.064	1243
55.072	1230
55.08	1218
55.088	1206
55.096	1193.99999999999
55.104	1184
55.112	1175
55.12	1165.99999999999
55.128	1158
55.136	1151
55.144	1143
55.152	1134
55.16	1124.99999999999
55.168	1117
55.176	1109
55.184	1100.99999999999
55.192	1093
55.2	1085
55.208	1076
55.216	1066
55.224	1056.99999999999
55.232	1048
55.24	1038
55.248	1028.99999999999
55.256	1024
55.264	1028
55.272	1052
55.28	1097
55.288	1166.00000000007
55.296	1268
55.304	1408
55.312	1576
55.32	1763
55.328	1966
55.336	2168
55.344	2363
55.352	2545.00000000015
55.36	2701
55.368	2823
55.376	2916
55.384	2981
55.392	3014
55.4	3016
55.408	2995
55.416	2958.99999999996
55.424	2907
55.432	2840
55.44	2764
55.448	2682
55.456	2593
55.464	2498
55.472	2397
55.48	2292.99999999991
55.488	2185
55.496	2074
55.504	1962
55.512	1853
55.52	1749
55.528	1651
55.536	1560
55.544	1478.99999999993
55.552	1412
55.56	1358
55.568	1317
55.576	1288
55.584	1270
55.592	1264
55.6	1268
55.608	1278.00000000001
55.616	1294
55.624	1315
55.632	1338
55.64	1360
55.648	1380
55.656	1397
55.664	1413
55.672	1425.00000000001
55.68	1432
55.688	1435
55.696	1434
55.704	1429
55.712	1422
55.72	1411
55.728	1398
55.736	1382.99999999999
55.744	1369
55.752	1354
55.76	1337
55.768	1321
55.776	1304
55.784	1286
55.792	1270
55.8	1255.99999999999
55.808	1242
55.816	1228
55.824	1216
55.832	1205
55.84	1194
55.848	1183
55.856	1174
55.864	1164.99999999999
55.872	1157
55.88	1149
55.888	1141
55.896	1133
55.904	1125
55.912	1117
55.92	1110
55.928	1102.99999999999
55.936	1097
55.944	1091
55.952	1084
55.96	1075
55.968	1066
55.976	1056
55.984	1046
55.992	1039
56	1039
56.008	1055
56.016	1089
56.024	1144
56.032	1231.00000000009
56.04	1357
56.048	1513
56.056	1689.00000000016
56.064	1884
56.072	2086
56.08	2286
56.088	2476
56.096	2644.00000000013
56.104	2780
56.112	2887
56.12	2967.00000000005
56.128	3014
56.136	3028
56.144	3017
56.152	2989
56.16	2942.99999999995
56.168	2882
56.176	2811
56.184	2731.99999999993
56.192	2645
56.2	2552
56.208	2453
56.216	2352
56.224	2244.9999999999
56.232	2135
56.24	2024
56.248	1911.9999999999
56.256	1803
56.264	1700
56.272	1603
56.28	1517
56.288	1442.99999999994
56.296	1383
56.304	1335
56.312	1296.99999999997
56.32	1272
56.328	1261
56.336	1262
56.344	1270
56.352	1285.00000000002
56.36	1306
56.368	1329
56.376	1353
56.384	1376
56.392	1395
56.4	1412
56.408	1426
56.416	1435.00000000001
56.424	1440
56.432	1441
56.44	1439
56.448	1433
56.456	1424
56.464	1412
56.472	1398
56.48	1382.99999999999
56.488	1367
56.496	1350
56.504	1333
56.512	1316
56.52	1298
56.528	1282
56.536	1267
56.544	1252.99999999999
56.552	1239
56.56	1225
56.568	1212
56.576	1200
56.584	1190
56.592	1181
56.6	1173
56.608	1165.99999999999
56.616	1159
56.624	1152
56.632	1144
56.64	1136
56.648	1128
56.656	1121
56.664	1115
56.672	1107.99999999999
56.68	1100
56.688	1092
56.696	1083
56.704	1074
56.712	1065
56.72	1056
56.728	1047
56.736	1043
56.744	1052
56.752	1074
56.76	1114
56.768	1185
56.776	1295
56.784	1436
56.792	1600
56.8	1788.00000000017
56.808	1989
56.816	2194
56.824	2391
56.832	2571
56.84	2722
56.848	2846
56.856	2945
56.864	3011.00000000004
56.872	3042
56.88	3045
56.888	3028
56.896	2989
56.904	2933
56.912	2865
56.92	2789
56.928	2704.99999999992
56.936	2613
56.944	2517
56.952	2418
56.96	2313
56.968	2203
56.976	2090
56.984	1977
56.992	1866.9999999999
57	1762
57.008	1662
57.016	1570
57.024	1489
57.032	1420.99999999995
57.04	1365
57.048	1322
57.056	1291.99999999998
57.064	1275
57.072	1270
57.08	1273
57.088	1284
57.096	1301.00000000002
57.104	1323
57.112	1346
57.12	1369.00000000002
57.128	1392
57.136	1412
57.144	1428
57.152	1439
57.16	1446
57.168	1448
57.176	1446
57.184	1440.99999999999
57.192	1433
57.2	1423
57.208	1412
57.216	1397
57.224	1380.99999999999
57.232	1364
57.24	1345
57.248	1326.99999999998
57.256	1310
57.264	1293
57.272	1277
57.28	1262
57.288	1246.99999999999
57.296	1234
57.304	1222
57.312	1209.99999999999
57.32	1198
57.328	1187
57.336	1178
57.344	1170
57.352	1161.99999999999
57.36	1154
57.368	1147
57.376	1140
57.384	1132
57.392	1124
57.4	1115
57.408	1107
57.416	1099.99999999999
57.424	1093
57.432	1087
57.44	1080
57.448	1071
57.456	1061
57.464	1051
57.472	1044
57.48	1046
57.488	1059
57.496	1088
57.504	1143
57.512	1235
57.52	1358
57.528	1507
57.536	1685
57.544	1882.00000000018
57.552	2088
57.56	2292
57.568	2484
57.576	2651
57.584	2793
57.592	2909
57.6	2991
57.608	3037.00000000002
57.616	3055
57.624	3050
57.632	3021
57.64	2973
57.648	2912
57.656	2842
57.664	2763
57.672	2675.99999999992
57.68	2582
57.688	2485
57.696	2384
57.704	2276
57.712	2164
57.72	2052
57.728	1940
57.736	1830.99999999991
57.744	1728
57.752	1630
57.76	1542
57.768	1467
57.776	1403
57.784	1350
57.792	1311
57.8	1286.99999999998
57.808	1273
57.816	1269
57.824	1275
57.832	1289
57.84	1309
57.848	1332
57.856	1356
57.864	1378.00000000002
57.872	1398
57.88	1415
57.888	1428
57.896	1436
57.904	1440
57.912	1441
57.92	1439
57.928	1432.99999999999
57.936	1425
57.944	1414
57.952	1399
57.96	1383
57.968	1366
57.976	1349
57.984	1332
57.992	1313.99999999998
58	1297
58.008	1282
58.016	1267
58.024	1253
58.032	1239.99999999999
58.04	1227
58.048	1215
58.056	1202.99999999999
58.064	1193
58.072	1184
58.08	1173
58.088	1163
58.096	1154.99999999999
58.104	1147
58.112	1139
58.12	1131.99999999999
58.128	1124
58.136	1116
58.144	1108
58.152	1100
58.16	1094
58.168	1089
58.176	1083
58.184	1073.99999999999
58.192	1063
58.2	1053
58.208	1043
58.216	1039
58.224	1042
58.232	1057
58.24	1096
58.248	1167.00000000007
58.256	1269
58.264	1399
58.272	1562
58.28	1750
58.288	1953.00000000018
58.296	2162
58.304	2365
58.312	2548.00000000015
58.32	2708
58.328	2844
58.336	2947
58.344	3012
58.352	3046.00000000001
58.36	3056
58.368	3040
58.376	3003
58.384	2952
58.392	2889
58.4	2816
58.408	2733
58.416	2643.99999999992
58.424	2550
58.432	2450
58.44	2343
58.448	2233
58.456	2122
58.464	2009
58.472	1898
58.48	1788.99999999991
58.488	1687
58.496	1593
58.504	1509
58.512	1436
58.52	1374
58.528	1326
58.536	1292
58.544	1270.99999999999
58.552	1261
58.56	1261
58.568	1270
58.576	1286
58.584	1307
58.592	1331
58.6	1354
58.608	1374.00000000002
58.616	1393
58.624	1410
58.632	1422
58.64	1429
58.648	1433
58.656	1434
58.664	1430
58.672	1422.99999999999
58.68	1414
58.688	1402
58.696	1388
58.704	1372
58.712	1356
58.72	1339
58.728	1322
58.736	1304.99999999999
58.744	1289
58.752	1272
58.76	1254
58.768	1238
58.776	1224
58.784	1210
58.792	1197
58.8	1186.99999999999
58.808	1178
58.816	1169
58.824	1160
58.832	1151
58.84	1144
58.848	1136
58.856	1128
58.864	1120.99999999999
58.872	1114
58.88	1105
58.888	1098
58.896	1092
58.904	1085
58.912	1078
58.92	1071
58.928	1062.99999999999
58.936	1053
58.944	1042
58.952	1033
58.96	1029
58.968	1033
58.976	1054
58.984	1102
58.992	1177.00000000008
59	1280
59.008	1416
59.016	1585
59.024	1779
59.032	1984.00000000018
59.04	2192
59.048	2390
59.056	2572.00000000015
59.064	2733
59.072	2864
59.08	2958
59.088	3021
59.096	3058.00000000001
59.104	3065
59.112	3046
59.12	3005.99999999996
59.128	2953
59.136	2888
59.144	2811
59.152	2728
59.16	2639.99999999992
59.168	2546
59.176	2444
59.184	2336.9999999999
59.192	2228
59.2	2114
59.208	1999
59.216	1887
59.224	1778.99999999991
59.232	1677
59.24	1585
59.248	1502.99999999993
59.256	1431
59.264	1372
59.272	1327
59.28	1295
59.288	1272.99999999999
59.296	1263
59.304	1265
59.312	1276.00000000001
59.32	1292
59.328	1312
59.336	1333
59.344	1355
59.352	1377.00000000002
59.36	1397
59.368	1413
59.376	1425.00000000001
59.384	1433
59.392	1437
59.4	1437
59.408	1434
59.416	1427.99999999999
59.424	1419
59.432	1408
59.44	1394
59.448	1379
59.456	1363
59.464	1346
59.472	1328
59.48	1309.99999999998
59.488	1293
59.496	1277
59.504	1262
59.512	1248
59.52	1234
59.528	1220
59.536	1207
59.544	1195.99999999999
59.552	1186
59.56	1176
59.568	1167
59.576	1160
59.584	1152
59.592	1144
59.6	1135
59.608	1125.99999999999
59.616	1117
59.624	1110
59.632	1103
59.64	1096
59.648	1088
59.656	1080
59.664	1072
59.672	1062.99999999999
59.68	1054
59.688	1045
59.696	1038
59.704	1036
59.712	1047
59.72	1082
59.728	1138
59.736	1219.00000000009
59.744	1336
59.752	1490
59.76	1672
59.768	1870
59.776	2080
59.784	2286
59.792	2481
59.8	2660.00000000015
59.808	2810
59.816	2924
59.824	3007
59.832	3064
59.84	3088
59.848	3082
59.856	3055
59.864	3013.99999999996
59.872	2958
59.88	2888
59.888	2809
59.896	2726
59.904	2637
59.912	2541
59.92	2439
59.928	2333.9999999999
59.936	2224
59.944	2112
59.952	2000
59.96	1889
59.968	1782
59.976	1682
59.984	1590
59.992	1506.99999999993
60	1438
60.008	1382
60.016	1338
60.024	1305
60.032	1284.99999999999
60.04	1279
60.048	1283
60.056	1294.00000000001
60.064	1311
60.072	1332
60.08	1354
60.088	1377
60.096	1400.00000000002
60.104	1418
60.112	1432
60.12	1443.00000000001
60.128	1450
60.136	1451
60.144	1448
60.152	1442
60.16	1432.99999999999
60.168	1422
60.176	1409
60.184	1394.99999999999
60.192	1379
60.2	1361
60.208	1343
60.216	1325
60.224	1305.99999999998
60.232	1287
60.24	1270
60.248	1253.99999999999
60.256	1239
60.264	1225
60.272	1213
60.28	1203
60.288	1192.99999999999
60.296	1183
60.304	1174
60.312	1164.99999999999
60.32	1157
60.328	1149
60.336	1141
60.344	1133
60.352	1123.99999999999
60.36	1114
60.368	1105
60.376	1096.99999999999
60.384	1090
60.392	1083
60.4	1077
60.408	1070
60.416	1060.99999999999
60.424	1053
60.432	1045
60.44	1038
60.448	1036
60.456	1051
60.464	1084
60.472	1138
60.48	1226.00000000009
60.488	1352
60.496	1509
60.504	1689
60.512	1888
60.52	2093
60.528	2298
60.536	2492
60.544	2664.00000000014
60.552	2804
60.56	2914
60.568	2997
60.576	3047
60.584	3063
60.592	3054
60.6	3026
60.608	2979.99999999995
60.616	2919
60.624	2847
60.632	2768
60.64	2681
60.648	2587
60.656	2489
60.664	2387
60.672	2279.9999999999
60.68	2169
60.688	2057
60.696	1946
60.704	1836
60.712	1731
60.72	1634
60.728	1545
60.736	1467.99999999994
60.744	1404
60.752	1353
60.76	1314
60.768	1287
60.776	1274
60.784	1270
60.792	1274
60.8	1286.00000000001
60.808	1304
60.816	1326
60.824	1349
60.832	1372
60.84	1391
60.848	1408
60.856	1422
60.864	1432.00000000001
60.872	1437
60.88	1438
60.888	1434
60.896	1427
60.904	1418
60.912	1406
60.92	1393
60.928	1377.99999999999
60.936	1360
60.944	1342
60.952	1324
60.96	1305
60.968	1286
60.976	1267
60.984	1249
60.992	1230.99999999998
61	1214
61.008	1198
61.016	1185
61.024	1174
61.032	1163.99999999999
61.04	1156
61.048	1148
61.056	1140.99999999999
61.064	1136
61.072	1129
61.08	1121
61.088	1115
61.096	1109.99999999999
61.104	1103
61.112	1096
61.12	1087.99999999999
61.128	1080
61.136	1072
61.144	1064
61.152	1055
61.16	1044.99999999999
61.168	1034
61.176	1023
61.184	1017
61.192	1021
61.2	1037
61.208	1071
61.216	1133
61.224	1231.0000000001
61.232	1360
61.24	1513
61.248	1694.00000000017
61.256	1892
61.264	2096
61.272	2296
61.28	2481
61.288	2640.00000000013
61.296	2773
61.304	2881
61.312	2955.00000000005
61.32	2994
61.328	3005
61.336	2995
61.344	2963
61.352	2912.99999999995
61.36	2851
61.368	2781
61.376	2701.99999999993
61.384	2614
61.392	2521
61.4	2425
61.408	2322
61.416	2211.9999999999
61.424	2100
61.432	1988
61.44	1876
61.448	1767
61.456	1664
61.464	1568
61.472	1483
61.48	1409.99999999994
61.488	1347
61.496	1297
61.504	1261
61.512	1239
61.52	1229
61.528	1230
61.536	1239
61.544	1255.00000000002
61.552	1276
61.56	1300
61.568	1325
61.576	1348
61.584	1369
61.592	1388
61.6	1402
61.608	1411.00000000001
61.616	1416
61.624	1417
61.632	1415
61.64	1408
61.648	1398
61.656	1387
61.664	1374
61.672	1357.99999999999
61.68	1341
61.688	1325
61.696	1308
61.704	1290
61.712	1273
61.72	1257
61.728	1242
61.736	1226.99999999999
61.744	1213
61.752	1200
61.76	1187
61.768	1176
61.776	1166
61.784	1156
61.792	1147
61.8	1139.99999999999
61.808	1133
61.816	1127
61.824	1120
61.832	1112
61.84	1104
61.848	1096
61.856	1089
61.864	1082.99999999999
61.872	1076
61.88	1068
61.888	1061
61.896	1054
61.904	1045
61.912	1037
61.92	1029
61.928	1027
61.936	1032
61.944	1049
61.952	1090
61.96	1163
61.968	1266
61.976	1396
61.984	1559
61.992	1746.00000000017
62	1947
62.008	2153
62.016	2352
62.024	2530
62.032	2686.00000000013
62.04	2818
62.048	2917
62.056	2980.00000000004
62.064	3012
62.072	3020
62.08	3003
62.088	2965
62.096	2911.99999999995
62.104	2847
62.112	2772
62.12	2688.99999999992
62.128	2601
62.136	2508
62.144	2408
62.152	2302
62.16	2192.9999999999
62.168	2083
62.176	1972
62.184	1860.9999999999
62.192	1754
62.2	1652
62.208	1558
62.216	1476
62.224	1405.99999999994
62.232	1348
62.24	1303
62.248	1271.99999999998
62.256	1253
62.264	1245
62.272	1247
62.28	1258
62.288	1275.00000000002
62.296	1297
62.304	1321
62.312	1344.00000000002
62.32	1366
62.328	1386
62.336	1402
62.344	1414
62.352	1422
62.36	1426
62.368	1426
62.376	1423
62.384	1417
62.392	1408
62.4	1396
62.408	1382
62.416	1366.99999999999
62.424	1352
62.432	1335
62.44	1316.99999999998
62.448	1299
62.456	1282
62.464	1266
62.472	1251
62.48	1236.99999999999
62.488	1224
62.496	1211
62.504	1199
62.512	1188
62.52	1177
62.528	1167
62.536	1158
62.544	1148.99999999999
62.552	1141
62.56	1134
62.568	1127
62.576	1120
62.584	1112
62.592	1104
62.6	1096
62.608	1087.99999999999
62.616	1081
62.624	1074
62.632	1065
62.64	1057
62.648	1048
62.656	1038
62.664	1032
62.672	1030
62.68	1037
62.688	1090
62.696	1159
62.704	1256
62.712	1541
62.72	1725
62.728	1925
62.736	2326.00000000022
62.744	2509
62.752	2672
62.76	2911
62.768	2980
62.776	3021
62.784	3034
62.792	3007
62.8	2962.99999999996
62.808	2907
62.816	2839
62.824	2760
62.832	2673
62.84	2582
62.848	2485
62.856	2382
62.864	2273.9999999999
62.872	2165
62.88	2055
62.888	1944
62.896	1833
62.904	1727
62.912	1628
62.92	1539
62.928	1460.99999999994
62.936	1393
62.944	1338
62.952	1296
62.96	1266
62.968	1247
62.976	1241
62.984	1246
62.992	1259.00000000001
63	1278
63.008	1300
63.016	1324
63.024	1348
63.032	1371.00000000002
63.04	1391
63.048	1405
63.056	1415.00000000001
63.064	1423
63.072	1427
63.08	1426
63.088	1422
63.096	1415.99999999999
63.104	1406
63.112	1393
63.12	1379.99999999999
63.128	1365
63.136	1349
63.144	1332
63.152	1314
63.16	1295.99999999998
63.168	1279
63.176	1264
63.184	1248.99999999999
63.192	1235
63.2	1221
63.208	1209
63.216	1198
63.224	1185.99999999999
63.232	1175
63.24	1165
63.248	1155.99999999999
63.256	1147
63.264	1139
63.272	1132
63.28	1124
63.288	1115.99999999999
63.296	1109
63.304	1103
63.312	1095.99999999999
63.32	1088
63.328	1081
63.336	1074
63.344	1065
63.352	1056.99999999999
63.36	1048
63.368	1040
63.376	1035
63.384	1036
63.392	1050
63.4	1090
63.408	1155
63.416	1246.00000000009
63.424	1371
63.432	1531
63.44	1716.00000000017
63.448	1915
63.456	2122
63.464	2320
63.472	2505
63.48	2673.00000000014
63.488	2812
63.496	2914
63.504	2986
63.512	3031
63.52	3045
63.528	3032
63.536	2998
63.544	2949.99999999995
63.552	2889
63.56	2816
63.568	2735
63.576	2651
63.584	2560
63.592	2460
63.6	2355
63.608	2247.9999999999
63.616	2137
63.624	2025
63.632	1914
63.64	1806
63.648	1703
63.656	1608
63.664	1522
63.672	1445.99999999994
63.68	1382
63.688	1333
63.696	1297
63.704	1272
63.712	1259
63.72	1259
63.728	1268
63.736	1282.00000000001
63.744	1301
63.752	1323
63.76	1346
63.768	1367
63.776	1387
63.784	1404
63.792	1417
63.8	1427.00000000001
63.808	1433
63.816	1435
63.824	1433
63.832	1428
63.84	1419
63.848	1408
63.856	1395
63.864	1380.99999999999
63.872	1364
63.88	1345
63.888	1327
63.896	1309
63.904	1291
63.912	1274
63.92	1258
63.928	1242.99999999999
63.936	1228
63.944	1213
63.952	1200
63.96	1188
63.968	1178
63.976	1169
63.984	1161
63.992	1151.99999999999
64	1143
64.008	1136
64.016	1128
64.024	1120
64.032	1113
64.04	1107
64.048	1100
64.056	1093
64.064	1086.99999999999
64.072	1080
64.08	1072
64.088	1062.99999999998
64.096	1054
64.104	1044
64.112	1034
64.12	1028
64.128	1030
64.136	1050
64.144	1090
64.152	1153
64.16	1250
64.168	1383
64.176	1546
64.184	1730
64.192	1931.00000000036
64.2	2136
64.208	2337
64.216	2526.00000000031
64.224	2689
64.232	2819
64.24	2920
64.248	2992
64.256	3030
64.264	3037
64.272	3022
64.28	2990
64.288	2940
64.296	2875
64.304	2801
64.312	2720
64.32	2631.99999999984
64.328	2537
64.336	2438
64.344	2333.99999999981
64.352	2225
64.36	2114
64.368	2002
64.376	1891
64.384	1782
64.392	1679
64.4	1585
64.408	1500
64.416	1426
64.424	1366
64.432	1318
64.44	1282
64.448	1258.99999999998
64.456	1249
64.464	1250
64.472	1257.00000000002
64.48	1272
64.488	1292
64.496	1315
64.504	1338
64.512	1359
64.52	1380
64.528	1397
64.536	1411
64.544	1421
64.552	1426
64.56	1427
64.568	1426
64.576	1419.99999999999
64.584	1410
64.592	1398
64.6	1385
64.608	1370
64.616	1352
64.624	1335
64.632	1320
64.64	1303
64.648	1285
64.656	1268
64.664	1252
64.672	1237
64.68	1223
64.688	1209
64.696	1197
64.704	1186.99999999998
64.712	1177
64.72	1168
64.728	1159
64.736	1149
64.744	1139
64.752	1130
64.76	1122
64.768	1115
64.776	1108
64.784	1101
64.792	1096
64.8	1090
64.808	1083
64.816	1075
64.824	1066
64.832	1056.99999999998
64.84	1049
64.848	1040
64.856	1031
64.864	1028
64.872	1039
64.88	1066
64.888	1111
64.896	1187
64.904	1301
64.912	1447
64.92	1617
64.928	1811
64.936	2015
64.944	2219
64.952	2416
64.96	2594.00000000029
64.968	2742
64.976	2861
64.984	2953
64.992	3011
65	3035
65.008	3034
65.016	3013
65.024	2973
65.032	2916
65.04	2847
65.048	2772
65.056	2688
65.064	2595.99999999983
65.072	2499
65.08	2399
65.088	2293.99999999981
65.096	2183
65.104	2070
65.112	1958
65.12	1847
65.128	1740
65.136	1640
65.144	1548
65.152	1466
65.16	1397
65.168	1340
65.176	1295
65.184	1265
65.192	1247.99999999998
65.2	1241
65.208	1243
65.216	1253.00000000002
65.224	1270
65.232	1291
65.24	1315
65.248	1340
65.256	1361
65.264	1380
65.272	1397
65.28	1410
65.288	1417
65.296	1421
65.304	1422
65.312	1419
65.32	1412.99999999999
65.328	1404
65.336	1392
65.344	1377.99999999997
65.352	1363
65.36	1348
65.368	1332
65.376	1316
65.384	1299
65.392	1283
65.4	1269
65.408	1255
65.416	1241
65.424	1228
65.432	1216
65.44	1206
65.448	1195.99999999998
65.456	1186
65.464	1177
65.472	1168.99999999999
65.48	1161
65.488	1153
65.496	1145
65.504	1137
65.512	1129
65.52	1122
65.528	1115
65.536	1108
65.544	1100
65.552	1092
65.56	1084
65.568	1076
65.576	1066.99999999998
65.584	1057
65.592	1048
65.6	1042
65.608	1045
65.616	1060
65.624	1090
65.632	1148
65.64	1243
65.648	1369
65.656	1521
65.664	1701
65.672	1899
65.68	2106
65.688	2311
65.696	2503
65.704	2669.00000000027
65.712	2810
65.72	2924
65.728	3003
65.736	3047
65.744	3062
65.752	3054
65.76	3024
65.768	2974
65.776	2911
65.784	2839
65.792	2758
65.8	2671
65.808	2579
65.816	2482
65.824	2379
65.832	2270.99999999981
65.84	2160
65.848	2048
65.856	1936
65.864	1827
65.872	1723
65.88	1625
65.888	1537
65.896	1460
65.904	1393
65.912	1339
65.92	1299
65.928	1274
65.936	1261
65.944	1258
65.952	1264
65.96	1278.00000000003
65.968	1297
65.976	1320
65.984	1344
65.992	1368
66	1390
66.008	1408
66.016	1423
66.024	1434
66.032	1439
66.04	1442
66.048	1441
66.056	1436
66.064	1426.99999999998
66.072	1417
66.08	1405
66.088	1390.99999999997
66.096	1376
66.104	1359
66.112	1341
66.12	1322
66.128	1303
66.136	1286
66.144	1270
66.152	1255
66.16	1241
66.168	1228
66.176	1216
66.184	1206
66.192	1196.99999999998
66.2	1188
66.208	1178
66.216	1168.99999999998
66.224	1161
66.232	1153
66.24	1145
66.248	1136
66.256	1127
66.264	1120
66.272	1112
66.28	1104
66.288	1097
66.296	1091
66.304	1084
66.312	1076
66.32	1066.99999999998
66.328	1057
66.336	1048
66.344	1046
66.352	1054
66.36	1075
66.368	1120
66.376	1200
66.384	1310
66.392	1447
66.4	1617
66.408	1809
66.416	2013
66.424	2219
66.432	2415
66.44	2589
66.448	2741.00000000025
66.456	2868
66.464	2961
66.472	3019.00000000007
66.48	3048
66.488	3053
66.496	3033
66.504	2992
66.512	2937
66.52	2872
66.528	2796
66.536	2712
66.544	2623
66.552	2530
66.56	2430
66.568	2324
66.576	2214.99999999981
66.584	2105
66.592	1993
66.6	1883
66.608	1777
66.616	1676
66.624	1583
66.632	1502
66.64	1430
66.648	1370
66.656	1324
66.664	1292
66.672	1272
66.68	1262
66.688	1263
66.696	1274
66.704	1291.00000000003
66.712	1313
66.72	1338
66.728	1361
66.736	1384
66.744	1405
66.752	1422
66.76	1433
66.768	1441
66.776	1446
66.784	1445
66.792	1441
66.8	1434
66.808	1424
66.816	1412
66.824	1398
66.832	1382.99999999997
66.84	1368
66.848	1352
66.856	1335
66.864	1318
66.872	1300
66.88	1281
66.888	1264
66.896	1248
66.904	1233
66.912	1220
66.92	1208
66.928	1197
66.936	1187
66.944	1177
66.952	1166
66.96	1153.99999999998
66.968	1143
66.976	1134
66.984	1124
66.992	1114
67	1106
67.008	1099
67.016	1091
67.024	1083
67.032	1077
67.04	1071
67.048	1064
67.056	1057
67.064	1049.99999999999
67.072	1042
67.08	1039
67.088	1043.00000000001
67.096	1057
67.104	1091
67.112	1157
67.12	1251
67.128	1372
67.136	1526
67.144	1706
67.152	1901
67.16	2103
67.168	2302
67.176	2483
67.184	2645
67.192	2784.00000000021
67.2	2891
67.208	2962
67.216	3002.00000000004
67.224	3018
67.232	3008
67.24	2974
67.248	2923
67.256	2863
67.264	2793
67.272	2712
67.28	2623
67.288	2531
67.296	2434
67.304	2329
67.312	2220
67.32	2109.9999999998
67.328	1999
67.336	1889
67.344	1780.99999999981
67.352	1678
67.36	1582
67.368	1497
67.376	1424
67.384	1361
67.392	1311
67.4	1275
67.408	1252
67.416	1239
67.424	1238
67.432	1247
67.44	1264
67.448	1284.00000000004
67.456	1307
67.464	1331
67.472	1354.00000000004
67.48	1375
67.488	1393
67.496	1407
67.504	1418
67.512	1425
67.52	1428
67.528	1426
67.536	1421
67.544	1414
67.552	1403
67.56	1390
67.568	1375
67.576	1359.99999999997
67.584	1343
67.592	1326
67.6	1309
67.608	1292
67.616	1275
67.624	1260
67.632	1245
67.64	1232
67.648	1219
67.656	1207
67.664	1196
67.672	1185
67.68	1175
67.688	1165
67.696	1156
67.704	1146.99999999998
67.712	1138
67.72	1129
67.728	1121
67.736	1113
67.744	1105
67.752	1097
67.76	1091
67.768	1086
67.776	1079
67.784	1071
67.792	1062
67.8	1053
67.808	1045
67.816	1040
67.824	1039
67.832	1048.00000000002
67.84	1075
67.848	1132
67.856	1215
67.864	1325
67.872	1468
67.88	1639
67.888	1830
67.896	2029
67.904	2229
67.912	2415
67.92	2584
67.928	2731
67.936	2847
67.944	2928
67.952	2980
67.96	3007
67.968	3007
67.976	2982
67.984	2938
67.992	2883
68	2817
68.008	2739
68.016	2654
68.024	2563
68.032	2467
68.04	2365
68.048	2258
68.056	2149
68.064	2037.9999999998
68.072	1926
68.08	1817
68.088	1712.99999999982
68.096	1616
68.104	1529
68.112	1453
68.12	1386
68.128	1332
68.136	1294
68.144	1267
68.152	1250
68.16	1244
68.168	1250
68.176	1264
68.184	1283
68.192	1306.00000000004
68.2	1329
68.208	1353
68.216	1376.00000000004
68.224	1395
68.232	1410
68.24	1421
68.248	1429
68.256	1433
68.264	1433
68.272	1429
68.28	1422
68.288	1411
68.296	1398
68.304	1383
68.312	1368
68.32	1351.99999999997
68.328	1335
68.336	1318
68.344	1300.99999999997
68.352	1285
68.36	1269
68.368	1253
68.376	1238
68.384	1224
68.392	1211
68.4	1200
68.408	1190
68.416	1180
68.424	1170
68.432	1161
68.44	1153
68.448	1144.99999999999
68.456	1137
68.464	1129
68.472	1120.99999999999
68.48	1114
68.488	1107
68.496	1101
68.504	1095
68.512	1088
68.52	1079
68.528	1071
68.536	1063
68.544	1054
68.552	1047
68.56	1043
68.568	1045
68.576	1063.00000000005
68.584	1108
68.592	1178
68.6	1274.0000000002
68.608	1405
68.616	1569
68.624	1754
68.632	1951
68.64	2153
68.648	2345
68.656	2523
68.664	2682
68.672	2811
68.68	2905
68.688	2970
68.696	3008
68.704	3016
68.712	2997
68.72	2959
68.728	2909
68.736	2846
68.744	2770
68.752	2688
68.76	2601
68.768	2508
68.776	2408
68.784	2303
68.792	2196
68.8	2085
68.808	1973
68.816	1863
68.824	1758
68.832	1658.99999999983
68.84	1569
68.848	1487
68.856	1416
68.864	1357
68.872	1312
68.88	1280
68.888	1259
68.896	1251
68.904	1254
68.912	1264
68.92	1280
68.928	1301
68.936	1325
68.944	1349
68.952	1372
68.96	1392.00000000003
68.968	1408
68.976	1420
68.984	1429
68.992	1435
69	1435
69.008	1431
69.016	1425
69.024	1416
69.032	1404
69.04	1390
69.048	1375
69.056	1360
69.064	1343.99999999997
69.072	1328
69.08	1311
69.088	1293.99999999997
69.096	1277
69.104	1261
69.112	1246
69.12	1232
69.128	1219
69.136	1208
69.144	1198
69.152	1189
69.16	1180
69.168	1170
69.176	1161
69.184	1153
69.192	1144.99999999999
69.2	1137
69.208	1129
69.216	1120.99999999999
69.224	1113
69.232	1106
69.24	1099
69.248	1093
69.256	1086
69.264	1078
69.272	1070
69.28	1060
69.288	1051
69.296	1046
69.304	1046
69.312	1059
69.32	1097.00000000008
69.328	1157
69.336	1242
69.344	1363.00000000024
69.352	1521
69.36	1703
69.368	1898
69.376	2101
69.384	2298
69.392	2483
69.4	2651
69.408	2790
69.416	2893
69.424	2966
69.432	3012
69.44	3027
69.448	3014.99999999997
69.456	2983
69.464	2936
69.472	2873.99999999988
69.48	2801
69.488	2721
69.496	2636
69.504	2545
69.512	2448
69.52	2345
69.528	2238
69.536	2128
69.544	2017
69.552	1906
69.56	1797
69.568	1693
69.576	1597.99999999984
69.584	1513
69.592	1438
69.6	1373.9999999999
69.608	1325
69.616	1290
69.624	1264
69.632	1250
69.64	1249
69.648	1257
69.656	1270
