Time	PPG1
0	1148
0.008	1138
0.016	1130
0.024	1123
0.032	1116
0.04	1108
0.048	1100
0.056	1092
0.064	1084
0.072	1075
0.08	1067
0.088	1062
0.096	1065
0.104	1088
0.112	1129
0.12	1195
0.128	1295
0.136	1431
0.144	1595
0.152	1778
0.16	1977
0.168	2179
0.176	2376
0.184	2559
0.192	2717
0.2	2841
0.208	2934
0.216	2999
0.224	3032
0.232	3032
0.24	3010
0.248	2972
0.256	2917
0.264	2850
0.272	2774
0.28	2692
0.288	2604
0.296	2509
0.304	2410
0.312	2307
0.32	2200
0.328	2089
0.336	1979
0.344	1872
0.352	1767
0.36	1669
0.368	1579
0.376	1497
0.384	1426
0.392	1369
0.4	1324
0.408	1289
0.416	1267
0.424	1255
0.432	1253
0.44	1259
0.448	1271
0.456	1289
0.464	1310
0.472	1331
0.48	1354
0.488	1374
0.496	1391
0.504	1406
0.512	1416
0.52	1421
0.528	1423
0.536	1424
0.544	1422
0.552	1415
0.56	1405
0.568	1394
0.576	1381
0.584	1367
0.592	1352
0.6	1336
0.608	1319
0.616	1302
0.624	1285
0.632	1268
0.64	1251
0.648	1236
0.656	1221
0.664	1208
0.672	1196
0.68	1185
0.688	1174
0.696	1164
0.704	1155
0.712	1146
0.72	1136
0.728	1126
0.736	1117
0.744	1109
0.752	1101
0.76	1094
0.768	1087
0.776	1079
0.784	1071
0.792	1063
0.8	1054
0.808	1045
0.816	1039
0.824	1039
0.832	1053
0.84	1092
0.848	1153
0.856	1240
0.864	1361
0.872	1516
0.88	1695
0.888	1889
0.896	2091
0.904	2287
0.912	2470
0.92	2634
0.928	2770
0.936	2870
0.944	2939
0.952	2982
0.96	2993
0.968	2977
0.976	2941
0.984	2892
0.992	2830
1	2756
1.008	2675
1.016	2590
1.024	2497
1.032	2399
1.04	2297
1.048	2192
1.056	2084
1.064	1974
1.072	1865
1.08	1761
1.088	1662
1.096	1570
1.104	1487
1.112	1414
1.12	1327
1.128	1285
1.136	1255
1.144	1228
1.152	1226
1.16	1233
1.168	1247
1.176	1276
1.184	1298
1.192	1321
1.2	1364
1.208	1381
1.216	1395
1.224	1411
1.232	1414
1.24	1414
1.248	1409
1.256	1400
1.264	1388
1.272	1375
1.28	1360
1.288	1344
1.296	1328
1.304	1311
1.312	1294
1.32	1277
1.328	1261
1.336	1246
1.344	1232
1.352	1219
1.36	1208
1.368	1197
1.376	1187
1.384	1177
1.392	1167
1.4	1158
1.408	1148
1.416	1138
1.424	1129
1.432	1121
1.44	1113
1.448	1105
1.456	1097
1.464	1089
1.472	1082
1.48	1075
1.488	1067
1.496	1058
1.504	1049
1.512	1045
1.52	1047
1.528	1060
1.536	1092
1.544	1154
1.552	1244
1.56	1361
1.568	1512
1.576	1690
1.584	1885
1.592	2087
1.6	2286
1.608	2466
1.616	2626
1.624	2763
1.632	2868
1.64	2936
1.648	2974
1.656	2988
1.664	2976
1.672	2942
1.68	2893
1.688	2833
1.696	2762
1.704	2682
1.712	2596
1.72	2505
1.728	2409
1.736	2308
1.744	2203
1.752	2096
1.76	1987
1.768	1879
1.776	1773
1.784	1672
1.792	1578
1.8	1494
1.808	1420
1.816	1357
1.824	1307
1.832	1270
1.84	1244
1.848	1229
1.856	1226
1.864	1233
1.872	1247
1.88	1264
1.888	1285
1.896	1309
1.904	1333
1.912	1356
1.92	1375
1.928	1391
1.936	1404
1.944	1413
1.952	1418
1.96	1417
1.968	1414
1.976	1408
1.984	1399
1.992	1388
2	1373
2.008	1357
2.016	1341
2.024	1325
2.032	1309
2.04	1293
2.048	1277
2.056	1262
2.064	1247
2.072	1233
2.08	1220
2.088	1207
2.096	1195
2.104	1184
2.112	1173
2.12	1163
2.128	1154
2.136	1144
2.144	1135
2.152	1127
2.16	1119
2.168	1112
2.176	1104
2.184	1096
2.192	1089
2.2	1083
2.208	1076
2.216	1067
2.224	1057
2.232	1047
2.24	1041
2.248	1046
2.256	1062
2.264	1094
2.272	1153
2.28	1248.00000000001
2.288	1373.00000000001
2.296	1524.00000000001
2.304	1701.00000000001
2.312	1896
2.32	2098
2.328	2297
2.336	2482
2.344	2640
2.352	2773
2.36	2881
2.368	2954
2.376	2990
2.384	2999
2.392	2989
2.4	2956
2.408	2903
2.416	2839
2.424	2767
2.432	2687
2.44	2599
2.448	2506
2.456	2408
2.464	2305
2.472	2198
2.48	2089
2.488	1981
2.496	1872
2.504	1767
2.512	1668
2.52	1574
2.528	1490
2.536	1418
2.544	1357
2.552	1307
2.56	1270
2.568	1245
2.576	1231
2.584	1226
2.592	1230
2.6	1242
2.608	1260
2.616	1282
2.624	1305
2.632	1327
2.64	1347
2.648	1367
2.656	1384
2.664	1394
2.672	1401
2.68	1407
2.688	1408
2.696	1404
2.704	1398
2.712	1390
2.72	1380
2.728	1368
2.736	1353
2.744	1337
2.752	1321
2.76	1305
2.768	1290
2.776	1275
2.784	1260
2.792	1245
2.8	1232
2.808	1219
2.816	1207
2.824	1195
2.832	1183
2.84	1172
2.848	1161
2.856	1151
2.864	1142
2.872	1132
2.88	1122
2.888	1113
2.896	1105
2.904	1098
2.912	1092
2.92	1086
2.928	1079
2.936	1071
2.944	1062
2.952	1052
2.96	1042
2.968	1035
2.976	1035
2.984	1051
2.992	1085
3	1141
3.008	1229
3.016	1354
3.024	1508
3.032	1683
3.04	1878
3.048	2079
3.056	2278
3.064	2465
3.072	2630
3.08	2763
3.088	2868
3.096	2943
3.104	2984
3.112	2993
3.12	2979
3.128	2948
3.136	2900
3.144	2837
3.152	2765
3.16	2686
3.168	2600
3.176	2508
3.184	2411
3.192	2312
3.2	2208
3.208	2100
3.216	1991
3.224	1883
3.232	1777
3.24	1676
3.248	1581
3.256	1494
3.264	1417
3.272	1355
3.28	1304
3.288	1263
3.296	1236
3.304	1221
3.312	1216
3.32	1219
3.328	1231
3.336	1249
3.344	1271
3.352	1294
3.36	1317
3.368	1339
3.376	1359
3.384	1376
3.392	1388
3.4	1396
3.408	1400
3.416	1401
3.424	1399
3.432	1393
3.44	1384
3.448	1373
3.456	1361
3.464	1348
3.472	1333
3.48	1317
3.488	1302
3.496	1286
3.504	1270
3.512	1255
3.52	1242
3.528	1229
3.536	1216
3.544	1203
3.552	1192
3.56	1181
3.568	1171
3.576	1161
3.584	1151
3.592	1142
3.6	1132
3.608	1122
3.616	1114
3.624	1106
3.632	1097
3.64	1090
3.648	1083
3.656	1076
3.664	1068
3.672	1060
3.68	1051
3.688	1043
3.696	1037
3.704	1036
3.712	1045
3.72	1078
3.728	1135
3.736	1217
3.744	1333
3.752	1485.00000000001
3.76	1663.00000000001
3.768	1856.00000000001
3.776	2059.00000000001
3.784	2259.00000000001
3.792	2448.00000000001
3.8	2618.00000000001
3.808	2760.00000000001
3.816	2866.00000000001
3.824	2941
3.832	2990
3.84	3007
3.848	2996
3.856	2963
3.864	2917
3.872	2858
3.88	2787
3.888	2709
3.896	2626
3.904	2536
3.912	2439
3.92	2338
3.928	2233
3.936	2126
3.944	2017
3.952	1908
3.96	1800
3.968	1697
3.976	1604
3.984	1518
3.992	1440
4	1375
4.008	1324
4.016	1284
4.024	1254
4.032	1236
4.04	1230
4.048	1232
4.056	1241
4.064	1257
4.072	1277
4.08	1299
4.088	1322
4.096	1343
4.104	1361
4.112	1377
4.12	1391
4.128	1401
4.136	1405
4.144	1405
4.152	1403
4.16	1397
4.168	1388
4.176	1377
4.184	1365
4.192	1352
4.2	1337
4.208	1322
4.216	1307
4.224	1291
4.232	1274
4.24	1258
4.248	1244
4.256	1231
4.264	1219
4.272	1207
4.28	1195
4.288	1184
4.296	1174
4.304	1164
4.312	1154
4.32	1145
4.328	1136
4.336	1126
4.344	1117
4.352	1110
4.36	1102
4.368	1093
4.376	1086
4.384	1079
4.392	1071
4.4	1061
4.408	1051
4.416	1041
4.424	1035
4.432	1035
4.44	1045
4.448	1074
4.456	1132
4.464	1219
4.472	1334
4.48	1482
4.488	1659
4.496	1856
4.504	2060.00000000002
4.512	2262.00000000002
4.52	2449.00000000002
4.528	2618.00000000002
4.536	2764.00000000001
4.544	2877.00000000001
4.552	2953.00000000001
4.56	2998
4.568	3016
4.576	3007
4.584	2975
4.592	2926.99999999999
4.6	2868.99999999999
4.608	2799.99999999999
4.616	2720
4.624	2634
4.632	2545
4.64	2451
4.648	2349
4.656	2243
4.664	2137
4.672	2029
4.68	1920
4.688	1813
4.696	1712
4.704	1617
4.712	1532
4.72	1457
4.728	1393
4.736	1341
4.744	1303
4.752	1275
4.76	1256
4.768	1249
4.776	1253
4.784	1264
4.792	1280
4.8	1300
4.808	1321
4.816	1344
4.824	1366
4.832	1384
4.84	1399
4.848	1412
4.856	1420
4.864	1424
4.872	1424
4.88	1421
4.888	1416
4.896	1406
4.904	1394
4.912	1381
4.92	1367
4.928	1352
4.936	1336
4.944	1319
4.952	1302
4.96	1286
4.968	1271
4.976	1257
4.984	1244
4.992	1232
5	1220
5.008	1208
5.016	1198
5.024	1189
5.032	1180
5.04	1170
5.048	1161
5.056	1153
5.064	1146
5.072	1139
5.08	1133
5.088	1127
5.096	1120
5.104	1112
5.112	1104
5.12	1095
5.128	1085
5.136	1075
5.144	1065
5.152	1057
5.16	1060
5.168	1074
5.176	1105
5.184	1165
5.192	1261
5.2	1388
5.208	1540
5.216	1720
5.224	1920
5.232	2129
5.24	2335
5.248	2527
5.256	2692
5.264	2829
5.272	2939
5.28	3013
5.288	3050
5.296	3059
5.304	3047
5.312	3013
5.32	2961
5.328	2897
5.336	2825
5.344	2745
5.352	2658
5.36	2565
5.368	2469
5.376	2368
5.384	2261
5.392	2152
5.4	2043
5.408	1934
5.416	1826
5.424	1723
5.432	1628
5.44	1541
5.448	1466
5.456	1403
5.464	1351
5.472	1311
5.48	1285
5.488	1270
5.496	1263
5.504	1266
5.512	1276
5.52	1292
5.528	1312
5.536	1334
5.544	1356
5.552	1377
5.56	1396
5.568	1412
5.576	1424
5.584	1430
5.592	1433
5.6	1434
5.608	1430
5.616	1422
5.624	1413
5.632	1403
5.64	1390
5.648	1375
5.656	1360
5.664	1344
5.672	1327
5.68	1311
5.688	1296
5.696	1281
5.704	1267
5.712	1253
5.72	1240
5.728	1226
5.736	1213
5.744	1202
5.752	1191
5.76	1181
5.768	1171
5.776	1162
5.784	1153
5.792	1144
5.8	1134
5.808	1126
5.816	1118
5.824	1109
5.832	1101
5.84	1093
5.848	1086
5.856	1079
5.864	1071
5.872	1062
5.88	1055
5.888	1055
5.896	1070
5.904	1101
5.912	1154
5.92	1240
5.928	1365
5.936	1520
5.944	1696
5.952	1893
5.96	2099
5.968	2303
5.976	2495
5.984	2665
5.992	2803
6	2910
6.008	2988
6.016	3032
6.024	3043
6.032	3031
6.04	3000
6.048	2951
6.056	2889
6.064	2818
6.072	2741
6.08	2657
6.088	2565
6.096	2468
6.104	2367
6.112	2263
6.12	2155
6.128	2045
6.136	1936
6.144	1828
6.152	1725
6.16	1630
6.168	1542
6.176	1465
6.184	1401
6.192	1347
6.2	1305
6.208	1276
6.216	1259
6.224	1254
6.232	1257
6.24	1268
6.248	1284
6.256	1304
6.264	1326
6.272	1347
6.28	1367
6.288	1385
6.296	1399
6.304	1410
6.312	1416
6.32	1418
6.328	1417
6.336	1413
6.344	1406
6.352	1397
6.36	1388
6.368	1376
6.376	1362
6.384	1348
6.392	1333
6.4	1318
6.408	1303
6.416	1289
6.424	1275
6.432	1260
6.44	1245
6.448	1232
6.456	1219
6.464	1208
6.472	1197
6.48	1186
6.488	1175
6.496	1165
6.504	1154
6.512	1143
6.52	1134
6.528	1124
6.536	1114
6.544	1105
6.552	1097
6.56	1089
6.568	1080
6.576	1071
6.584	1063
6.592	1053
6.6	1043
6.608	1034
6.616	1029
6.624	1035
6.632	1062
6.64	1110.00000000001
6.648	1182.00000000001
6.656	1288.00000000001
6.664	1430
6.672	1599
6.68	1786
6.688	1986
6.696	2187
6.704	2382
6.712	2560
6.72	2711
6.728	2829
6.736	2917
6.744	2976
6.752	3001
6.76	2997
6.768	2972
6.776	2931
6.784	2875
6.792	2807
6.8	2731
6.808	2648
6.816	2558
6.824	2463
6.832	2364
6.84	2260
6.848	2152
6.856	2042
6.864	1932
6.872	1824
6.88	1719
6.888	1621
6.896	1532
6.904	1452
6.912	1383
6.92	1329
6.928	1288
6.936	1257
6.944	1238
6.952	1231
6.96	1234
6.968	1243
6.976	1260
6.984	1280
6.992	1302
7	1325
7.008	1348
7.016	1367
7.024	1383
7.032	1397
7.04	1408
7.048	1413
7.056	1414
7.064	1413
7.072	1410
7.08	1401
7.088	1390
7.096	1377
7.104	1363
7.112	1349
7.12	1334
7.128	1317
7.136	1301
7.144	1285
7.152	1270
7.16	1255
7.168	1241
7.176	1229
7.184	1218
7.192	1207
7.2	1197
7.208	1186
7.216	1176
7.224	1167
7.232	1157
7.24	1148
7.248	1139
7.256	1130
7.264	1122
7.272	1114
7.28	1106
7.288	1099
7.296	1092
7.304	1084
7.312	1076
7.32	1067
7.328	1058
7.336	1050
7.344	1046
7.352	1051
7.36	1072
7.368	1119
7.376	1193
7.384	1294
7.392	1429
7.4	1597
7.408	1786
7.416	1984
7.424	2186
7.432	2379
7.44	2559
7.448	2718
7.456	2845
7.464	2935
7.472	2993
7.48	3025
7.488	3027
7.496	3003
7.504	2959.99999999999
7.512	2902.99999999999
7.52	2835.99999999999
7.528	2757.99999999999
7.536	2672.99999999999
7.544	2583.99999999999
7.552	2487.99999999999
7.56	2385.99999999999
7.568	2279.99999999999
7.576	2171.99999999999
7.584	2060.99999999999
7.592	1949.99999999999
7.6	1840.99999999999
7.608	1736.99999999999
7.616	1638.99999999999
7.624	1549.99999999999
7.632	1469.99999999999
7.64	1400.99999999999
7.648	1344.99999999999
7.656	1302
7.664	1271
7.672	1252
7.68	1244
7.688	1246
7.696	1256
7.704	1271
7.712	1291
7.72	1314
7.728	1338
7.736	1361
7.744	1382
7.752	1399
7.76	1412
7.768	1421
7.776	1427
7.784	1428
7.792	1425
7.8	1420
7.808	1410
7.816	1398
7.824	1386
7.832	1373
7.84	1359
7.848	1343
7.856	1326
7.864	1309
7.872	1293
7.88	1278
7.888	1263
7.896	1249
7.904	1236
7.912	1222
7.92	1209
7.928	1199
7.936	1189
7.944	1179
7.952	1170
7.96	1162
7.968	1154
7.976	1145
7.984	1137
7.992	1129
8	1121
8.008	1112
8.016	1103
8.024	1096
8.032	1088
8.04	1080
8.048	1071
8.056	1062
8.064	1053
8.072	1050
8.08	1055
8.088	1074.00000000001
8.096	1116
8.104	1193.00000000002
8.112	1301
8.12	1435.00000000003
8.128	1599
8.136	1788.00000000004
8.144	1992
8.152	2198.00000000004
8.16	2395
8.168	2572.00000000004
8.176	2726
8.184	2854.00000000002
8.192	2948
8.2	3004
8.208	3030
8.216	3033
8.224	3011
8.232	2969
8.24	2913
8.248	2846
8.256	2769
8.264	2684
8.272	2594
8.28	2500
8.288	2399
8.296	2293
8.304	2184
8.312	2074
8.32	1963
8.328	1854
8.336	1747
8.344	1647
8.352	1556
8.36	1476
8.368	1407
8.376	1349
8.384	1304
8.392	1272
8.4	1253
8.408	1245
8.416	1246
8.424	1256
8.432	1273
8.44	1294
8.448	1318
8.456	1342
8.464	1364
8.472	1384
8.48	1401
8.488	1413
8.496	1421
8.504	1427
8.512	1429
8.52	1426
8.528	1419
8.536	1411
8.544	1400
8.552	1386
8.56	1371
8.568	1355
8.576	1338
8.584	1320
8.592	1303
8.6	1288
8.608	1272
8.616	1257
8.624	1244
8.632	1231
8.64	1219
8.648	1207
8.656	1196
8.664	1186
8.672	1177
8.68	1169
8.688	1161
8.696	1152
8.704	1142
8.712	1133
8.72	1124
8.728	1115
8.736	1108
8.744	1100
8.752	1092
8.76	1084
8.768	1075
8.776	1066
8.784	1056
8.792	1046
8.8	1040
8.808	1046
8.816	1065
8.824	1103
8.832	1170
8.84	1274
8.848	1410
8.856	1571
8.864	1759
8.872	1963
8.88	2173
8.888	2377
8.896	2564
8.904	2722
8.912	2852
8.92	2954
8.928	3021
8.936	3052
8.944	3054
8.952	3036
8.96	2997
8.968	2941
8.976	2873
8.984	2797
8.992	2714
9	2624
9.008	2528.99999999998
9.016	2430
9.024	2324.99999999998
9.032	2217
9.04	2105.99999999997
9.048	1992
9.056	1878.99999999998
9.064	1772
9.072	1669.99999999998
9.08	1575
9.088	1491.99999999998
9.096	1421
9.104	1360.99999999999
9.112	1312
9.12	1275.99999999999
9.128	1254
9.136	1243
9.144	1242
9.152	1250
9.16	1265
9.168	1286
9.176	1309
9.184	1333.00000000001
9.192	1356
9.2	1376
9.208	1393
9.216	1407
9.224	1416
9.232	1421
9.24	1424
9.248	1422
9.256	1417
9.264	1410
9.272	1398
9.28	1384
9.288	1369
9.296	1353
9.304	1336
9.312	1318
9.32	1301
9.328	1285
9.336	1269
9.344	1253
9.352	1238
9.36	1224
9.368	1211
9.376	1199
9.384	1187
9.392	1177
9.4	1168
9.408	1157
9.416	1147
9.424	1137
9.432	1127
9.44	1118
9.448	1109
9.456	1101
9.464	1094
9.472	1088
9.48	1082
9.488	1074
9.496	1065
9.504	1056
9.512	1046
9.52	1037
9.528	1030
9.536	1028
9.544	1042
9.552	1073
9.56	1126
9.568	1211
9.576	1335
9.584	1490
9.592	1668
9.6	1868
9.608	2077
9.616	2286
9.624	2483
9.632	2659
9.64	2802
9.648	2913
9.656	2995
9.664	3042
9.672	3055
9.68	3043
9.688	3012
9.696	2962
9.704	2898
9.712	2824
9.72	2743
9.728	2656
9.736	2561
9.744	2461
9.752	2357
9.76	2249
9.768	2138
9.776	2025
9.784	1913
9.792	1803
9.8	1699
9.808	1601
9.816	1511
9.824	1432
9.832	1366
9.84	1313
9.848	1272
9.856	1244
9.864	1229
9.872	1225
9.88	1230
9.888	1242
9.896	1260
9.904	1283
9.912	1308
9.92	1332
9.928	1353
9.936	1372
9.944	1388
9.952	1400
9.96	1407
9.968	1410
9.976	1410
9.984	1406
9.992	1398
10	1388
10.008	1377
10.016	1364
10.024	1347
10.032	1331
10.04	1315
10.048	1298
10.056	1280
10.064	1263
10.072	1248
10.08	1232
10.088	1217
10.096	1204
10.104	1191
10.112	1180
10.12	1169
10.128	1158
10.136	1147
10.144	1137
10.152	1127
10.16	1119
10.168	1112
10.176	1104
10.184	1096
10.192	1088
10.2	1080
10.208	1072
10.216	1064
10.224	1056
10.232	1048
10.24	1039
10.248	1029
10.256	1019
10.264	1012
10.272	1013
10.28	1032
10.288	1068
10.296	1127
10.304	1220
10.312	1351
10.32	1514
10.328	1699
10.336	1905
10.344	2116
10.352	2323
10.36	2518
10.368	2688
10.376	2825
10.384	2932
10.392	3009
10.4	3051
10.408	3058
10.416	3040
10.424	3006
10.432	2954
10.44	2888
10.448	2813
10.456	2731
10.464	2641
10.472	2544
10.48	2442
10.488	2338
10.496	2231
10.504	2121
10.512	2008
10.52	1896
10.528	1788
10.536	1684
10.544	1586
10.552	1496
10.56	1418
10.568	1354
10.576	1301
10.584	1261
10.592	1235
10.6	1222
10.608	1219
10.616	1226
10.624	1241
10.632	1261
10.64	1284
10.648	1308
10.656	1331
10.664	1353
10.672	1373
10.68	1389
10.688	1400
10.696	1406
10.704	1409
10.712	1410
10.72	1408
10.728	1402
10.736	1392
10.744	1381
10.752	1369
10.76	1354
10.768	1337
10.776	1321
10.784	1305
10.792	1288
10.8	1271
10.808	1256
10.816	1241
10.824	1227
10.832	1213
10.84	1200
10.848	1188
10.856	1177
10.864	1167
10.872	1158
10.88	1149
10.888	1140
10.896	1130
10.904	1121
10.912	1113
10.92	1105
10.928	1097
10.936	1089
10.944	1081
10.952	1074
10.96	1067
10.968	1060
10.976	1050
10.984	1039
10.992	1031
11	1027
11.008	1031
11.016	1053
11.024	1095.00000000001
11.032	1161
11.04	1262.00000000003
11.048	1402
11.056	1574.00000000004
11.064	1767
11.072	1978.00000000005
11.08	2193
11.088	2403.00000000005
11.096	2598
11.104	2766.00000000003
11.112	2898
11.12	2997.00000000002
11.128	3067
11.136	3102
11.144	3104
11.152	3081.99999999999
11.16	3042
11.168	2985.99999999999
11.176	2916
11.184	2836.99999999998
11.192	2753
11.2	2662.99999999998
11.208	2567
11.216	2465.99999999998
11.224	2360
11.232	2249.99999999998
11.24	2137
11.248	2022.99999999997
11.256	1910
11.264	1799
11.272	1696
11.28	1600
11.288	1512
11.296	1436
11.304	1373
11.312	1322
11.32	1283
11.328	1258
11.336	1245
11.344	1243
11.352	1249
11.36	1262
11.368	1280
11.376	1302
11.384	1325
11.392	1348
11.4	1368
11.408	1387
11.416	1404
11.424	1415
11.432	1422
11.44	1425
11.448	1425
11.456	1417
11.464	1407
11.472	1395
11.48	1367
11.488	1351
11.496	1335
11.504	1310
11.512	1293
11.52	1276
11.528	1259
11.536	1236
11.544	1222
11.552	1209
11.56	1185
11.568	1174
11.576	1164
11.584	1150
11.592	1140
11.6	1130
11.608	1122
11.616	1115
11.624	1108
11.632	1100
11.64	1091
11.648	1082
11.656	1073
11.664	1065
11.672	1057
11.68	1048
11.688	1037
11.696	1028
11.704	1023
11.712	1026
11.72	1046
11.728	1088
11.736	1154
11.744	1255
11.752	1396
11.76	1566
11.768	1758
11.776	1967
11.784	2180
11.792	2388
11.8	2582
11.808	2750
11.816	2882
11.824	2982
11.832	3053
11.84	3089
11.848	3091
11.856	3068
11.864	3027
11.872	2969
11.88	2897
11.888	2818
11.896	2732
11.904	2639
11.912	2541
11.92	2439
11.928	2334
11.936	2224
11.944	2110
11.952	1995
11.96	1884
11.968	1776
11.976	1673
11.984	1577
11.992	1490
12	1414
12.008	1350.99999999999
12.016	1301
12.024	1262.99999999999
12.032	1238
12.04	1226
12.048	1225
12.056	1232
12.064	1247
12.072	1268
12.08	1291
12.088	1316.00000000001
12.096	1339
12.104	1360
12.112	1378
12.12	1394
12.128	1406
12.136	1413
12.144	1417
12.152	1418
12.16	1415
12.168	1408
12.176	1396
12.184	1382
12.192	1366
12.2	1349
12.208	1332
12.216	1314
12.224	1297
12.232	1280
12.24	1262
12.248	1245
12.256	1230
12.264	1215
12.272	1200
12.28	1185
12.288	1172
12.296	1159
12.304	1147
12.312	1136
12.32	1126
12.328	1115
12.336	1104
12.344	1095
12.352	1088
12.36	1080
12.368	1073
12.376	1067
12.384	1061
12.392	1055
12.4	1048
12.408	1040
12.416	1031
12.424	1022
12.432	1013
12.44	1007
12.448	1007
12.456	1024
12.464	1059
12.472	1116
12.48	1206
12.488	1335
12.496	1495
12.504	1677
12.512	1879
12.52	2087
12.528	2293
12.536	2489
12.544	2662
12.552	2800
12.56	2907
12.568	2986
12.576	3029
12.584	3038
12.592	3021
12.6	2987
12.608	2935
12.616	2868
12.624	2790
12.632	2706
12.64	2616
12.648	2520
12.656	2420
12.664	2316
12.672	2207
12.68	2095
12.688	1982
12.696	1869
12.704	1760
12.712	1657
12.72	1562
12.728	1474
12.736	1396
12.744	1332
12.752	1281
12.76	1242
12.768	1215
12.776	1202
12.784	1199
12.792	1205
12.8	1220
12.808	1241
12.816	1266
12.824	1292
12.832	1318
12.84	1341
12.848	1361
12.856	1378
12.864	1390
12.872	1397
12.88	1401
12.888	1401
12.896	1398
12.904	1392
12.912	1383
12.92	1372
12.928	1359
12.936	1345
12.944	1329
12.952	1312
12.96	1294
12.968	1276
12.976	1258
12.984	1241
12.992	1226
13	1211
13.008	1197
13.016	1185
13.024	1174
13.032	1163
13.04	1153
13.048	1143
13.056	1134
13.064	1125
13.072	1116
13.08	1106
13.088	1097
13.096	1090
13.104	1083
13.112	1076
13.12	1069
13.128	1063
13.136	1057
13.144	1051
13.152	1043
13.16	1034
13.168	1024
13.176	1016
13.184	1015
13.192	1028
13.2	1055.00000000001
13.208	1103
13.216	1183.00000000002
13.224	1302
13.232	1451.00000000004
13.24	1625
13.248	1822.00000000004
13.256	2028
13.264	2237.00000000005
13.272	2439
13.28	2620.00000000004
13.288	2767
13.296	2884.00000000002
13.304	2973
13.312	3027.00000000001
13.32	3045
13.328	3037
13.336	3009
13.344	2961
13.352	2897
13.36	2822
13.368	2740
13.376	2651
13.384	2555
13.392	2455
13.4	2352
13.408	2243
13.416	2130
13.424	2015
13.432	1902
13.44	1791
13.448	1686
13.456	1587
13.464	1497
13.472	1417
13.48	1351
13.488	1298
13.496	1255
13.504	1226
13.512	1210
13.52	1205
13.528	1210
13.536	1223
13.544	1243
13.552	1267
13.56	1293
13.568	1319
13.576	1343
13.584	1365
13.592	1384
13.6	1398
13.608	1407
13.616	1412
13.624	1413
13.632	1411
13.64	1406
13.648	1397
13.656	1386
13.664	1372
13.672	1356
13.68	1339
13.688	1322
13.696	1304
13.704	1286
13.712	1270
13.72	1255
13.728	1240
13.736	1224
13.744	1209
13.752	1196
13.76	1184
13.768	1173
13.776	1163
13.784	1154
13.792	1145
13.8	1136
13.808	1126
13.816	1117
13.824	1108
13.832	1098
13.84	1089
13.848	1081
13.856	1073
13.864	1066
13.872	1059
13.88	1052
13.888	1043
13.896	1034
13.904	1025
13.912	1018
13.92	1017
13.928	1034
13.936	1067
13.944	1123
13.952	1213
13.96	1340
13.968	1498
13.976	1679
13.984	1879
13.992	2086
14	2291
14.008	2485.00000000004
14.016	2656
14.024	2792.00000000003
14.032	2897
14.04	2975.00000000001
14.048	3018
14.056	3027
14.064	3012
14.072	2977.99999999999
14.08	2926
14.088	2858.99999999998
14.096	2782
14.104	2697.99999999998
14.112	2608
14.12	2511.99999999998
14.128	2413
14.136	2310.99999999998
14.144	2203
14.152	2090.99999999997
14.16	1978
14.168	1865.99999999998
14.176	1757
14.184	1653.99999999998
14.192	1559
14.2	1472.99999999998
14.208	1396
14.216	1331.99999999999
14.224	1281
14.232	1241.99999999999
14.24	1215
14.248	1203
14.256	1202
14.264	1207
14.272	1219
14.28	1237
14.288	1260
14.296	1285.00000000001
14.304	1310
14.312	1331
14.32	1350
14.328	1366
14.336	1378
14.344	1385
14.352	1389
14.36	1390
14.368	1387
14.376	1381
14.384	1372
14.392	1360
14.4	1346
14.408	1331
14.416	1315
14.424	1298
14.432	1280
14.44	1262
14.448	1245
14.456	1229
14.464	1213
14.472	1198
14.48	1183
14.488	1170
14.496	1158
14.504	1146
14.512	1135
14.52	1125
14.528	1115
14.536	1106
14.544	1097
14.552	1089
14.56	1081
14.568	1072
14.576	1063
14.584	1056
14.592	1048
14.6	1040
14.608	1032
14.616	1024
14.624	1016
14.632	1007
14.64	998
14.648	992
14.656	995
14.664	1017
14.672	1057
14.68	1118
14.688	1213
14.696	1347
14.704	1510
14.712	1693
14.72	1894
14.728	2098
14.736	2297
14.744	2483
14.752	2643
14.76	2768
14.768	2861
14.776	2927
14.784	2960
14.792	2961
14.8	2939
14.808	2900
14.816	2844
14.824	2774
14.832	2697
14.84	2615
14.848	2526
14.856	2431
14.864	2333
14.872	2231
14.88	2124
14.888	2014
14.896	1903
14.904	1794
14.912	1688
14.92	1589
14.928	1499
14.936	1417
14.944	1346
14.952	1287
14.96	1240
14.968	1205
14.976	1184
14.984	1174
14.992	1173
15	1181
15.008	1197
15.016	1217
15.024	1239.00000000001
15.032	1263
15.04	1286
15.048	1305
15.056	1323
15.064	1339
15.072	1350
15.08	1355
15.088	1358
15.096	1358
15.104	1355
15.112	1349
15.12	1340
15.128	1328
15.136	1313
15.144	1297
15.152	1281
15.16	1265
15.168	1249
15.176	1233
15.184	1216
15.192	1199
15.2	1184
15.208	1169
15.216	1156
15.224	1143
15.232	1131
15.24	1119
15.248	1108
15.256	1098
15.264	1088
15.272	1078
15.28	1069
15.288	1061
15.296	1053
15.304	1045
15.312	1037
15.32	1029
15.328	1021
15.336	1013
15.344	1006
15.352	998
15.36	988
15.368	978
15.376	970
15.384	965
15.392	970
15.4	995
15.408	1040
15.416	1107
15.424	1208
15.432	1346
15.44	1513
15.448	1698
15.456	1895
15.464	2093
15.472	2284
15.48	2460
15.488	2610
15.496	2724
15.504	2808
15.512	2865
15.52	2890
15.528	2885
15.536	2859
15.544	2818
15.552	2762
15.56	2693
15.568	2617
15.576	2537
15.584	2451
15.592	2358
15.6	2261
15.608	2164
15.616	2062
15.624	1956
15.632	1850
15.64	1746
15.648	1646
15.656	1552
15.664	1465
15.672	1387
15.68	1320
15.688	1266
15.696	1223
15.704	1190
15.712	1169
15.72	1161
15.728	1162
15.736	1169
15.744	1183
15.752	1202
15.76	1223
15.768	1246
15.776	1267
15.784	1286
15.792	1303
15.8	1318
15.808	1328
15.816	1333
15.824	1335
15.832	1335
15.84	1331
15.848	1324
15.856	1314
15.864	1302
15.872	1289
15.88	1274
15.888	1258
15.896	1243
15.904	1227
15.912	1210
15.92	1194
15.928	1179
15.936	1164
15.944	1150
15.952	1138
15.96	1126
15.968	1115
15.976	1105
15.984	1095
15.992	1086
16	1077
16.008	1068
16.016	1058
16.024	1049
16.032	1041
16.04	1033
16.048	1026
16.056	1018
16.064	1010
16.072	1002
16.08	992.999999999996
16.088	985
16.096	977
16.104	968
16.112	958.999999999997
16.12	955
16.128	960
16.136	984
16.144	1028.00000000002
16.152	1095
16.16	1196
16.168	1332
16.176	1495.00000000008
16.184	1676
16.192	1870
16.2	2063
16.208	2248.00000000008
16.216	2417
16.224	2560
16.232	2669
16.24	2749.00000000003
16.248	2802
16.256	2823
16.264	2816
16.272	2788.99999999999
16.28	2748
16.288	2692
16.296	2626
16.304	2551.99999999997
16.312	2473
16.32	2390
16.328	2301
16.336	2208.99999999996
16.344	2113
16.352	2013
16.36	1911
16.368	1808.99999999995
16.376	1708
16.384	1610
16.392	1519
16.4	1436
16.408	1361
16.416	1298
16.424	1246
16.432	1204
16.44	1173
16.448	1154
16.456	1146
16.464	1148
16.472	1157
16.48	1173
16.488	1193
16.496	1216
16.504	1239
16.512	1262
16.52	1282
16.528	1299
16.536	1314
16.544	1325
16.552	1333
16.56	1336
16.568	1334
16.576	1330
16.584	1323
16.592	1313
16.6	1302
16.608	1289
16.616	1275
16.624	1261
16.632	1247
16.64	1232
16.648	1217
16.656	1203
16.664	1189
16.672	1176
16.68	1163
16.688	1151
16.696	1140
16.704	1129
16.712	1119
16.72	1110
16.728	1101
16.736	1094
16.744	1087
16.752	1081
16.76	1075
16.768	1069
16.776	1063
16.784	1056
16.792	1049
16.8	1043
16.808	1036
16.816	1028
16.824	1019
16.832	1009
16.84	1000
16.848	993
16.856	991
16.864	999
16.872	1027
16.88	1076
16.888	1148
16.896	1251
16.904	1387
16.912	1549
16.92	1727
16.928	1915
16.936	2100
16.944	2275
16.952	2435
16.96	2568
16.968	2666
16.976	2736
16.984	2781
16.992	2797
17	2787
17.008	2758
17.016	2714.99999999998
17.024	2661
17.032	2597
17.04	2526
17.048	2450.99999999997
17.056	2371
17.064	2285
17.072	2196
17.08	2103.99999999996
17.088	2010
17.096	1914
17.104	1818
17.112	1723.99999999996
17.12	1633
17.128	1549
17.136	1471
17.144	1400.99999999997
17.152	1341
17.16	1292
17.168	1254
17.176	1225.99999999999
17.184	1209
17.192	1204
17.2	1207
17.208	1216
17.216	1230
17.224	1249
17.232	1272
17.24	1295.00000000001
17.248	1316
17.256	1334
17.264	1350
17.272	1363
17.28	1372
17.288	1375
17.296	1376
17.304	1374
17.312	1370
17.32	1364
17.328	1355
17.336	1345
17.344	1333
17.352	1318
17.36	1302
17.368	1287.99999999999
17.376	1274
17.384	1259
17.392	1244
17.4	1229.99999999999
17.408	1217
17.416	1205
17.424	1194
17.432	1182
17.44	1171
17.448	1162
17.456	1153
17.464	1144
17.472	1134
17.48	1125
17.488	1118
17.496	1110
17.504	1101
17.512	1093
17.52	1085
17.528	1077
17.536	1070
17.544	1063
17.552	1056
17.56	1048
17.568	1039
17.576	1030
17.584	1022
17.592	1018
17.6	1024
17.608	1050
17.616	1094
17.624	1159
17.632	1256
17.64	1386
17.648	1542
17.656	1714
17.664	1898
17.672	2082
17.68	2258
17.688	2419
17.696	2555
17.704	2657
17.712	2731
17.72	2781
17.728	2802
17.736	2796
17.744	2770
17.752	2729
17.76	2675
17.768	2611
17.776	2541
17.784	2467
17.792	2388
17.8	2303
17.808	2215
17.816	2124
17.824	2030
17.832	1934
17.84	1838
17.848	1745
17.856	1656
17.864	1572
17.872	1494
17.88	1423
17.888	1363
17.896	1315
17.904	1277
17.912	1248
17.92	1229
17.928	1222
17.936	1223
17.944	1232
17.952	1247
17.96	1266
17.968	1287
17.976	1310
17.984	1331
17.992	1350
18	1366
18.008	1379
18.016	1389
18.024	1394
18.032	1395
18.04	1395
18.048	1392
18.056	1385
18.064	1377
18.072	1368
18.08	1356.99999999999
18.088	1345
18.096	1331
18.104	1316
18.112	1300.99999999999
18.12	1287
18.128	1273
18.136	1259
18.144	1245.99999999999
18.152	1234
18.16	1222
18.168	1211
18.176	1201
18.184	1191
18.192	1181
18.2	1171
18.208	1161
18.216	1151
18.224	1142
18.232	1133
18.24	1124
18.248	1115
18.256	1108
18.264	1099
18.272	1091
18.28	1083
18.288	1074
18.296	1065
18.304	1056
18.312	1046
18.32	1037
18.328	1031
18.336	1034
18.344	1057
18.352	1100
18.36	1164
18.368	1261.00000000005
18.376	1393
18.384	1550
18.392	1722
18.4	1905.00000000008
18.408	2087
18.416	2261
18.424	2420
18.432	2553.00000000005
18.44	2654
18.448	2725
18.456	2771
18.464	2789
18.472	2782
18.48	2755
18.488	2715
18.496	2663
18.504	2600
18.512	2530
18.52	2456
18.528	2378
18.536	2296
18.544	2210
18.552	2122
18.56	2031
18.568	1937
18.576	1842
18.584	1749
18.592	1660
18.6	1576
18.608	1498
18.616	1427
18.624	1368
18.632	1321
18.64	1284
18.648	1256
18.656	1240
18.664	1234
18.672	1236
18.68	1244
18.688	1258
18.696	1277
18.704	1299
18.712	1322
18.72	1343
18.728	1361
18.736	1378
18.744	1392
18.752	1402
18.76	1409
18.768	1413
18.776	1413
18.784	1409
18.792	1403
18.8	1396
18.808	1386
18.816	1373
18.824	1359
18.832	1346
18.84	1333
18.848	1319
18.856	1304
18.864	1289
18.872	1276
18.88	1263
18.888	1251
18.896	1240
18.904	1229
18.912	1219
18.92	1209
18.928	1200
18.936	1191
18.944	1182
18.952	1173
18.96	1165
18.968	1158
18.976	1150
18.984	1140
18.992	1132
19	1126
19.008	1119
19.016	1112
19.024	1105
19.032	1100
19.04	1093
19.048	1084
19.056	1074
19.064	1068
19.072	1071
19.08	1092.00000000001
19.088	1130
19.096	1190
19.104	1282
19.112	1408.00000000006
19.12	1560
19.128	1729
19.136	1912
19.144	2096.00000000008
19.152	2275
19.16	2441
19.168	2582
19.176	2691.00000000004
19.184	2774
19.192	2831
19.2	2858
19.208	2856
19.216	2835
19.224	2801
19.232	2752
19.24	2691.99999999997
19.248	2625
19.256	2553
19.264	2475
19.272	2389.99999999996
19.28	2301
19.288	2210
19.296	2115
19.304	2018.99999999996
19.312	1922
19.32	1825
19.328	1731
19.336	1643.99999999996
19.344	1563
19.352	1490
19.36	1426
19.368	1373.99999999998
19.376	1334
19.384	1303
19.392	1284
19.4	1276
19.408	1276
19.416	1283
19.424	1298
19.432	1317.00000000001
19.44	1338
19.448	1360
19.456	1383
19.464	1404
19.472	1422
19.48	1437
19.488	1450
19.496	1459
19.504	1464
19.512	1464
19.52	1460
19.528	1454
19.536	1446
19.544	1436
19.552	1425
19.56	1413
19.568	1399
19.576	1384
19.584	1368
19.592	1353
19.6	1340
19.608	1326
19.616	1312
19.624	1298
19.632	1284
19.64	1272
19.648	1261
19.656	1251
19.664	1241
19.672	1231
19.68	1222
19.688	1214
19.696	1207
19.704	1199
19.712	1191
19.72	1183
19.728	1174
19.736	1166
19.744	1159
19.752	1152
19.76	1144
19.768	1136
19.776	1128
19.784	1120
19.792	1112
19.8	1106
19.808	1110
19.816	1134
19.824	1175
19.832	1237
19.84	1330
19.848	1458
19.856	1613
19.864	1785
19.872	1970
19.88	2156
19.888	2338
19.896	2507
19.904	2652
19.912	2765
19.92	2851
19.928	2910
19.936	2937
19.944	2936
19.952	2914
19.96	2877
19.968	2826
19.976	2763
19.984	2693
19.992	2618
20	2536
20.008	2448
20.016	2355.99999999996
20.024	2262
20.032	2165
20.04	2065
20.048	1963.99999999996
20.056	1865
20.064	1771
20.072	1682
20.08	1597.99999999996
20.088	1523
20.096	1460
20.104	1408
20.112	1365.99999999998
20.12	1334
20.128	1314
20.136	1305
20.144	1306
20.152	1315
20.16	1331
20.168	1351
20.176	1375.00000000001
20.184	1400
20.192	1423
20.2	1444
20.208	1462.00000000001
20.216	1478
20.224	1490
20.232	1497
20.24	1501
20.248	1502
20.256	1499
20.264	1493
20.272	1484
20.28	1473
20.288	1462
20.296	1449
20.304	1434.99999999999
20.312	1420
20.32	1403
20.328	1387
20.336	1371.99999999999
20.344	1357
20.352	1344
20.36	1330
20.368	1315.99999999999
20.376	1304
20.384	1293
20.392	1283
20.4	1273
20.408	1263
20.416	1254
20.424	1245
20.432	1237
20.44	1229
20.448	1221
20.456	1212
20.464	1202
20.472	1193
20.48	1185
20.488	1178
20.496	1172
20.504	1165
20.512	1157
20.52	1149
20.528	1142
20.536	1138
20.544	1143
20.552	1168
20.56	1213
20.568	1282
20.576	1382
20.584	1516
20.592	1677
20.6	1856
20.608	2047
20.616	2238
20.624	2422
20.632	2592
20.64	2736
20.648	2847
20.656	2929
20.664	2986
20.672	3011
20.68	3007
20.688	2981
20.696	2940
20.704	2885
20.712	2818
20.72	2744
20.728	2666
20.736	2582
20.744	2492
20.752	2399
20.76	2305
20.768	2206
20.776	2103
20.784	2002
20.792	1903
20.8	1808
20.808	1718
20.816	1635
20.824	1562
20.832	1499
20.84	1449
20.848	1410
20.856	1380
20.864	1362
20.872	1355
20.88	1357
20.888	1366
20.896	1381
20.904	1401
20.912	1423
20.92	1445
20.928	1466
20.936	1484
20.944	1500
20.952	1514
20.96	1524
20.968	1529
20.976	1531
20.984	1530
20.992	1525
21	1518
21.008	1508
21.016	1495.99999999999
21.024	1482
21.032	1467
21.04	1453
21.048	1437.99999999999
21.056	1420
21.064	1403
21.072	1388
21.08	1372.99999999999
21.088	1359
21.096	1345
21.104	1332
21.112	1318.99999999999
21.12	1307
21.128	1295
21.136	1284
21.144	1274
21.152	1265
21.16	1256
21.168	1246
21.176	1237
21.184	1229
21.192	1220
21.2	1210
21.208	1202
21.216	1195
21.224	1187
21.232	1179
21.24	1171
21.248	1161
21.256	1152
21.264	1144
21.272	1140
21.28	1145
21.288	1170
21.296	1216
21.304	1286.00000000004
21.312	1389
21.32	1528
21.328	1694
21.336	1878.00000000008
21.344	2075
21.352	2273
21.36	2463
21.368	2637.00000000007
21.376	2786
21.384	2900
21.392	2984
21.4	3041.00000000002
21.408	3066
21.416	3061
21.424	3035
21.432	2993.99999999998
21.44	2938
21.448	2870
21.456	2794
21.464	2712.99999999996
21.472	2627
21.48	2535
21.488	2439
21.496	2340.99999999996
21.504	2240
21.512	2134
21.52	2028
21.528	1926
21.536	1827
21.544	1734
21.552	1648
21.56	1570
21.568	1504
21.576	1452
21.584	1410
21.592	1379
21.6	1361
21.608	1354
21.616	1356
21.624	1365
21.632	1381
21.64	1401
21.648	1423
21.656	1446
21.664	1468
21.672	1487
21.68	1504
21.688	1518
21.696	1528
21.704	1533
21.712	1535
21.72	1534
21.728	1529
21.736	1521
21.744	1511
21.752	1500
21.76	1480
21.768	1466
21.776	1449
21.784	1415
21.792	1397
21.8	1381
21.808	1352
21.816	1338
21.824	1325
21.832	1301
21.84	1289
21.848	1277
21.856	1262
21.864	1253
21.872	1245
21.88	1236
21.888	1226
21.896	1217
21.904	1209
21.912	1201
21.92	1193
21.928	1185
21.936	1177
21.944	1169
21.952	1161
21.96	1152
21.968	1142
21.976	1136
21.984	1139
21.992	1162
22	1204
22.008	1268
22.016	1367.00000000005
22.024	1504
22.032	1667
22.04	1850
22.048	2049.00000000009
22.056	2252
22.064	2449
22.072	2631
22.08	2787.00000000006
22.088	2910
22.096	3002
22.104	3065
22.112	3095
22.12	3094
22.128	3071
22.136	3033
22.144	2977.99999999997
22.152	2909
22.16	2834
22.168	2754
22.176	2666.99999999996
22.184	2574
22.192	2476
22.2	2376
22.208	2271.99999999995
22.216	2165
22.224	2058
22.232	1952
22.24	1849.99999999996
22.248	1754
22.256	1664
22.264	1583
22.272	1513.99999999997
22.28	1457
22.288	1414
22.296	1381
22.304	1359.99999999999
22.312	1350
22.32	1350
22.328	1358
22.336	1373.00000000001
22.344	1394
22.352	1416
22.36	1438
22.368	1461.00000000001
22.376	1483
22.384	1501
22.392	1515
22.4	1526
22.408	1532
22.416	1535
22.424	1536
22.432	1532
22.44	1523
22.448	1511
22.456	1499
22.464	1484.99999999999
22.472	1469
22.48	1453
22.488	1436
22.496	1417.99999999999
22.504	1401
22.512	1386
22.52	1370
22.528	1354
22.536	1339
22.544	1325
22.552	1312
22.56	1299
22.568	1287
22.576	1276
22.584	1266
22.592	1257
22.6	1248
22.608	1238
22.616	1229
22.624	1221
22.632	1213
22.64	1205
22.648	1196
22.656	1186
22.664	1176
22.672	1167
22.68	1158
22.688	1147
22.696	1139
22.704	1132
22.712	1127
22.72	1132
22.728	1155
22.736	1199
22.744	1266
22.752	1366
22.76	1504
22.768	1671
22.776	1859
22.784	2062
22.792	2266
22.8	2465
22.808	2651
22.816	2811
22.824	2935
22.832	3028
22.84	3093
22.848	3125
22.856	3124
22.864	3100
22.872	3060
22.88	3003
22.888	2934
22.896	2855
22.904	2771
22.912	2681
22.92	2585
22.928	2487
22.936	2386
22.944	2279
22.952	2170
22.96	2061
22.968	1956
22.976	1854
22.984	1758
22.992	1668
23	1586
23.008	1517
23.016	1462.99999999998
23.024	1420
23.032	1386
23.04	1365
23.048	1356
23.056	1355
23.064	1363
23.072	1378
23.08	1397.00000000001
23.088	1420
23.096	1443
23.104	1465
23.112	1485.00000000001
23.12	1503
23.128	1518
23.136	1528
23.144	1533
23.152	1535
23.16	1535
23.168	1531
23.176	1522
23.184	1511
23.192	1499
23.2	1484
23.208	1465.99999999999
23.216	1448
23.224	1431
23.232	1413
23.24	1393.99999999999
23.248	1376
23.256	1360
23.264	1345
23.272	1329.99999999999
23.28	1315
23.288	1302
23.296	1288
23.304	1275.99999999999
23.312	1265
23.32	1255
23.328	1245
23.336	1235
23.344	1225
23.352	1215
23.36	1205
23.368	1194
23.376	1183
23.384	1174
23.392	1166
23.4	1158
23.408	1150
23.416	1143
23.424	1135
23.432	1125
23.44	1115
23.448	1109
23.456	1112
23.464	1134.00000000001
23.472	1176
23.48	1242
23.488	1344
23.496	1484.00000000007
23.504	1653
23.512	1842
23.52	2046
23.528	2253.00000000009
23.536	2455
23.544	2642
23.552	2802
23.56	2926
23.568	3018
23.576	3081
23.584	3111
23.592	3109
23.6	3084
23.608	3043
23.616	2987
23.624	2918
23.632	2840
23.64	2757
23.648	2668
23.656	2572
23.664	2472
23.672	2369
23.68	2263
23.688	2154
23.696	2044
23.704	1936
23.712	1831
23.72	1733
23.728	1642
23.736	1559
23.744	1488
23.752	1430
23.76	1385
23.768	1351
23.776	1329
23.784	1320
23.792	1320
23.8	1328
23.808	1344
23.816	1364
23.824	1386
23.832	1409
23.84	1432
23.848	1452
23.856	1470
23.864	1486
23.872	1497
23.88	1503
23.888	1506
23.896	1505
23.904	1500
23.912	1491
23.92	1480
23.928	1466
23.936	1451
23.944	1435
23.952	1418
23.96	1401
23.968	1384
23.976	1365
23.984	1347
23.992	1330
24	1313
24.008	1298
24.016	1284.99999999999
24.024	1273
24.032	1260
24.04	1248
24.048	1237
24.056	1227
24.064	1217
24.072	1207
24.08	1197
24.088	1187
24.096	1177
24.104	1167
24.112	1158
24.12	1150
24.128	1142
24.136	1132
24.144	1123
24.152	1116
24.16	1107
24.168	1098
24.176	1089
24.184	1085
24.192	1091
24.2	1116
24.208	1160.00000000002
24.216	1227
24.224	1329
24.232	1469
24.24	1639.00000000008
24.248	1829
24.256	2034
24.264	2240
24.272	2439.00000000009
24.28	2623
24.288	2781
24.296	2903
24.304	2993.00000000003
24.312	3055
24.32	3084
24.328	3081
24.336	3055.99999999999
24.344	3013
24.352	2954
24.36	2883
24.368	2804.99999999996
24.376	2721
24.384	2631
24.392	2535
24.4	2432.99999999995
24.408	2328
24.416	2219
24.424	2108
24.432	1996.99999999995
24.44	1888
24.448	1782
24.456	1684
24.464	1592.99999999996
24.472	1511
24.48	1441
24.488	1385
24.496	1341.99999999998
24.504	1309
24.512	1289
24.52	1282
24.528	1284
24.536	1292
24.544	1307
24.552	1328
24.56	1350.00000000001
24.568	1373
24.576	1396
24.584	1416
24.592	1433
24.6	1448
24.608	1459
24.616	1465
24.624	1467
24.632	1467
24.64	1463
24.648	1454
24.656	1442
24.664	1430
24.672	1417
24.68	1402
24.688	1385
24.696	1368
24.704	1350
24.712	1332
24.72	1314
24.728	1297
24.736	1281
24.744	1266
24.752	1251
24.76	1238
24.768	1226
24.776	1214
24.784	1203
24.792	1194
24.8	1185
24.808	1176
24.816	1166
24.824	1156
24.832	1147
24.84	1139
24.848	1131
24.856	1124
24.864	1117
24.872	1110
24.88	1101
24.888	1093
24.896	1084
24.904	1074
24.912	1066
24.92	1063
24.928	1072
24.936	1104
24.944	1159
24.952	1240
24.96	1356
24.968	1508
24.976	1686
24.984	1880
24.992	2086
25	2289
25.008	2483
25.016	2661.00000000007
25.024	2809
25.032	2919
25.04	2997
25.048	3047.00000000001
25.056	3064
25.064	3050
25.072	3016
25.08	2967.99999999998
25.088	2906
25.096	2832
25.104	2751
25.112	2665.99999999996
25.12	2573
25.128	2473
25.136	2369
25.144	2262.99999999995
25.152	2153
25.16	2041
25.168	1930
25.176	1819.99999999995
25.184	1715
25.192	1620
25.2	1533
25.208	1455.99999999997
25.216	1391
25.224	1341
25.232	1302
25.24	1272.99999999999
25.248	1258
25.256	1255
25.264	1262
25.272	1275.00000000001
25.28	1295
25.288	1319
25.296	1346
25.304	1372.00000000001
25.312	1396
25.32	1418
25.328	1436
25.336	1449
25.344	1458
25.352	1462
25.36	1462
25.368	1460
25.376	1455
25.384	1446
25.392	1434
25.4	1420.99999999999
25.408	1406
25.416	1389
25.424	1372
25.432	1353.99999999999
25.44	1336
25.448	1317
25.456	1300
25.464	1283.99999999999
25.472	1269
25.48	1256
25.488	1243
25.496	1232
25.504	1221
25.512	1210
25.52	1199
25.528	1189
25.536	1179
25.544	1169
25.552	1160
25.56	1151
25.568	1142
25.576	1132
25.584	1123
25.592	1116
25.6	1109
25.608	1103
25.616	1096
25.624	1087
25.632	1078
25.64	1070
25.648	1065
25.656	1068
25.664	1085
25.672	1129
25.68	1199
25.688	1298
25.696	1434
25.704	1603
25.712	1795
25.72	2000
25.728	2210
25.736	2409
25.744	2593
25.752	2756
25.76	2886
25.768	2978
25.776	3038
25.784	3070
25.792	3071
25.8	3046
25.808	3002
25.816	2945
25.824	2875
25.832	2795
25.84	2709
25.848	2618
25.856	2521
25.864	2418
25.872	2311
25.88	2204
25.888	2094
25.896	1983
25.904	1874
25.912	1768
25.92	1668
25.928	1578
25.936	1497
25.944	1427
25.952	1370
25.96	1326
25.968	1295
25.976	1276
25.984	1268
25.992	1271
26	1283
26.008	1300
26.016	1321.00000000001
26.024	1346
26.032	1371
26.04	1396
26.048	1419.00000000001
26.056	1438
26.064	1452
26.072	1462
26.08	1467
26.088	1469
26.096	1468
26.104	1463
26.112	1455
26.12	1444
26.128	1430
26.136	1414
26.144	1396.99999999999
26.152	1380
26.16	1362
26.168	1343
26.176	1324.99999999999
26.184	1309
26.192	1294
26.2	1279
26.208	1264.99999999999
26.216	1251
26.224	1238
26.232	1226
26.24	1213.99999999999
26.248	1203
26.256	1193
26.264	1182
26.272	1171
26.28	1162
26.288	1153
26.296	1145
26.304	1137
26.312	1130
26.32	1122
26.328	1113
26.336	1106
26.344	1098
26.352	1089
26.36	1080
26.368	1070
26.376	1065
26.384	1067
26.392	1080
26.4	1114.00000000002
26.408	1180
26.416	1274
26.424	1396
26.432	1554.00000000008
26.44	1741
26.448	1946
26.456	2156
26.464	2362.00000000009
26.472	2550
26.48	2717
26.488	2859
26.496	2965.00000000004
26.504	3033
26.512	3070
26.52	3081
26.528	3066.99999999999
26.536	3030
26.544	2975
26.552	2910
26.56	2834.99999999996
26.568	2751
26.576	2661
26.584	2568
26.592	2468.99999999995
26.6	2364
26.608	2254
26.616	2142
26.624	2029.99999999995
26.632	1920
26.64	1813
26.648	1713
26.656	1621
26.664	1539
26.672	1467
26.68	1405
26.688	1356
26.696	1321
26.704	1298
26.712	1285
26.72	1284
26.728	1291
26.736	1305
26.744	1324
26.752	1346
26.76	1369
26.768	1393
26.776	1415
26.784	1434
26.792	1448
26.8	1459
26.808	1467
26.816	1470
26.824	1468
26.832	1462
26.84	1454
26.848	1444
26.856	1431
26.864	1417
26.872	1402
26.88	1384
26.888	1365
26.896	1348
26.904	1331
26.912	1314
26.92	1297
26.928	1281
26.936	1266
26.944	1252
26.952	1239
26.96	1227
26.968	1216
26.976	1206
26.984	1196
26.992	1186
27	1176
27.008	1166
27.016	1156
27.024	1146
27.032	1137
27.04	1129
27.048	1121
27.056	1113
27.064	1105
27.072	1097
27.08	1088
27.088	1078
27.096	1068
27.104	1060
27.112	1062
27.12	1076
27.128	1108
27.136	1169
27.144	1267.00000000005
27.152	1396
27.16	1552
27.168	1737
27.176	1941.00000000009
27.184	2152
27.192	2359
27.2	2552
27.208	2716.00000000007
27.216	2853
27.224	2962
27.232	3034
27.24	3069.00000000001
27.248	3076
27.256	3061
27.264	3024
27.272	2967.99999999997
27.28	2900
27.288	2824
27.296	2740
27.304	2647.99999999996
27.312	2551
27.32	2451
27.328	2346
27.336	2235.99999999995
27.344	2124
27.352	2012
27.36	1901
27.368	1794.99999999995
27.376	1693
27.384	1597
27.392	1512
27.4	1438.99999999997
27.408	1378
27.416	1327
27.424	1291
27.432	1270.99999999999
27.44	1262
27.448	1261
27.456	1270
27.464	1286.00000000001
27.472	1308
27.48	1332
27.488	1357
27.496	1382.00000000001
27.504	1404
27.512	1423
27.52	1438
27.528	1447
27.536	1452
27.544	1454
27.552	1453
27.56	1448
27.568	1440
27.576	1431
27.584	1420
27.592	1405.99999999999
27.6	1390
27.608	1372
27.616	1354
27.624	1335.99999999999
27.632	1318
27.64	1301
27.648	1284
27.656	1268
27.664	1254
27.672	1239
27.68	1226
27.688	1214
27.696	1202
27.704	1191
27.712	1182
27.72	1172
27.728	1163
27.736	1155
27.744	1146
27.752	1136
27.76	1126
27.768	1117
27.776	1110
27.784	1102
27.792	1094
27.8	1087
27.808	1079
27.816	1069
27.824	1059
27.832	1050
27.84	1045
27.848	1055
27.856	1081
27.864	1127
27.872	1205
27.88	1323
27.888	1473
27.896	1648
27.904	1848
27.912	2059
27.92	2271
27.928	2476
27.936	2659
27.944	2809
27.952	2929
27.96	3019
27.968	3073
27.976	3091
27.984	3082
27.992	3053
28	3004
28.008	2939
28.016	2864.99999999997
28.024	2785
28.032	2698
28.04	2603
28.048	2504.99999999996
28.056	2404
28.064	2298
28.072	2187
28.08	2074.99999999995
28.088	1963
28.096	1852
28.104	1747
28.112	1648.99999999996
28.12	1558
28.128	1478
28.136	1412
28.144	1357.99999999998
28.152	1315
28.16	1285
28.168	1269
28.176	1264
28.184	1266
28.192	1277
28.2	1296
28.208	1318.00000000001
28.216	1342
28.224	1366
28.232	1388
28.24	1408.00000000001
28.248	1425
28.256	1439
28.264	1448
28.272	1452
28.28	1453
28.288	1450
28.296	1441
28.304	1431
28.312	1420
28.32	1406
28.328	1390
28.336	1372.99999999999
28.344	1357
28.352	1340
28.36	1322
28.368	1303.99999999999
28.376	1287
28.384	1271
28.392	1255
28.4	1240.99999999999
28.408	1229
28.416	1218
28.424	1206
28.432	1195
28.44	1186
28.448	1176
28.456	1165
28.464	1155
28.472	1146
28.48	1137
28.488	1129
28.496	1121
28.504	1112
28.512	1103
28.52	1096
28.528	1088
28.536	1079
28.544	1070
28.552	1060
28.56	1050
28.568	1045
28.576	1050
28.584	1073
28.592	1119.00000000002
28.6	1190
28.608	1296
28.616	1441
28.624	1616.00000000008
28.632	1811
28.64	2022
28.648	2233
28.656	2438.00000000009
28.664	2627
28.672	2789
28.68	2913
28.688	3005
28.696	3069
28.704	3098
28.712	3094
28.72	3066
28.728	3022
28.736	2963
28.744	2892
28.752	2812
28.76	2727
28.768	2637
28.776	2540
28.784	2438
28.792	2332
28.8	2222
28.808	2110
28.816	1997
28.824	1886
28.832	1778
28.84	1678
28.848	1586
28.856	1503
28.864	1433
28.872	1377
28.88	1333
28.888	1300
28.896	1280
28.904	1272
28.912	1274
28.92	1286
28.928	1305
28.936	1328
28.944	1353
28.952	1379
28.96	1403
28.968	1423
28.976	1441
28.984	1455
28.992	1464
29	1468
29.008	1468
29.016	1466
29.024	1461
29.032	1453
29.04	1442
29.048	1428.99999999999
29.056	1415
29.064	1399
29.072	1382
29.08	1364.99999999999
29.088	1348
29.096	1331
29.104	1315
29.112	1298.99999999999
29.12	1284
29.128	1269
29.136	1255
29.144	1241.99999999999
29.152	1229
29.16	1217
29.168	1207
29.176	1197
29.184	1187
29.192	1177
29.2	1167
29.208	1157
29.216	1146
29.224	1135
29.232	1126
29.24	1118
29.248	1111
29.256	1103
29.264	1094
29.272	1084
29.28	1075
29.288	1070
29.296	1068
29.304	1075
29.312	1100
29.32	1153
29.328	1234
29.336	1343.00000000006
29.344	1489
29.352	1668
29.36	1869
29.368	2081.00000000009
29.376	2294
29.384	2492
29.392	2673
29.4	2831.00000000006
29.408	2953
29.416	3035
29.424	3085
29.432	3108
29.44	3100
29.448	3068
29.456	3019
29.464	2956.99999999997
29.472	2884
29.48	2801
29.488	2712
29.496	2618.99999999996
29.504	2520
29.512	2414
29.52	2306
29.528	2195.99999999995
29.536	2083
29.544	1970
29.552	1859
29.56	1753.99999999995
29.568	1655
29.576	1567
29.584	1490
29.592	1422.99999999997
29.6	1369
29.608	1330
29.616	1303
29.624	1287
29.632	1282
29.64	1287
29.648	1301
29.656	1319.00000000001
29.664	1341
29.672	1365
29.68	1390
29.688	1413.00000000001
29.696	1433
29.704	1449
29.712	1461
29.72	1468
29.728	1470
29.736	1469
29.744	1465
29.752	1458
29.76	1447
29.768	1434
29.776	1420
29.784	1404
29.792	1386
29.8	1368
29.808	1350
29.816	1332
29.824	1314
29.832	1297
29.84	1281
29.848	1266
29.856	1252
29.864	1240
29.872	1229
29.88	1219
29.888	1209
29.896	1198
29.904	1187
29.912	1177
29.92	1167
29.928	1157
29.936	1147
29.944	1139
29.952	1131
29.96	1121
29.968	1112
29.976	1103
29.984	1093
29.992	1082
30	1072
30.008	1063
30.016	1055
30.024	1052
30.032	1057
30.04	1077
30.048	1120.00000000002
30.056	1197
30.064	1305
30.072	1441
30.08	1610.00000000008
30.088	1804
30.096	2013
30.104	2225
30.112	2430.00000000009
30.12	2612
30.128	2770
30.136	2903
30.144	3000.00000000003
30.152	3056
30.16	3082
30.168	3085
30.176	3060.99999999999
30.184	3015
30.192	2955
30.2	2884
30.208	2803.99999999996
30.216	2717
30.224	2624
30.232	2527
30.24	2425.99999999995
30.248	2318
30.256	2207
30.264	2095
30.272	1981.99999999995
30.28	1870
30.288	1762
30.296	1660
30.304	1566.99999999996
30.312	1486
30.32	1415
30.328	1356
30.336	1309.99999999998
30.344	1281
30.352	1266
30.36	1260
30.368	1265
30.376	1280
30.384	1301
30.392	1326
30.4	1352.00000000001
30.408	1377
30.416	1401
30.424	1423
30.432	1440.00000000001
30.44	1451
30.448	1459
30.456	1462
30.464	1459
30.472	1453
30.48	1445
30.488	1435
30.496	1422.99999999999
30.504	1409
30.512	1393
30.52	1376
30.528	1357.99999999999
30.536	1340
30.544	1322
30.552	1304
30.56	1285.99999999999
30.568	1269
30.576	1254
30.584	1239
30.592	1224.99999999999
30.6	1211
30.608	1197
30.616	1185
30.624	1174
30.632	1163
30.64	1154
30.648	1144
30.656	1135
30.664	1127
30.672	1118
30.68	1109
30.688	1100
30.696	1090
30.704	1082
30.712	1075
30.72	1067
30.728	1058
30.736	1048
30.744	1038
30.752	1032
30.76	1037
30.768	1055
30.776	1091
30.784	1156
30.792	1258
30.8	1392
30.808	1552
30.816	1740
30.824	1945
30.832	2157
30.84	2365
30.848	2557
30.856	2719
30.864	2852
30.872	2956
30.88	3023
30.888	3053
30.896	3055
30.904	3038
30.912	2999
30.92	2942
30.928	2874
30.936	2798
30.944	2713
30.952	2622
30.96	2526
30.968	2425
30.976	2319
30.984	2209
30.992	2096
31	1982
31.008	1871
31.016	1764.99999999995
31.024	1663
31.032	1569
31.04	1486
31.048	1415.99999999997
31.056	1359
31.064	1315
31.072	1285
31.08	1268
31.088	1262
31.096	1265
31.104	1277
31.112	1295.00000000001
31.12	1316
31.128	1340
31.136	1365
31.144	1387.00000000001
31.152	1407
31.16	1425
31.168	1438
31.176	1445
31.184	1448
31.192	1448
31.2	1445
31.208	1438
31.216	1428
31.224	1417
31.232	1405
31.24	1390.99999999999
31.248	1375
31.256	1357
31.264	1339
31.272	1321.99999999999
31.28	1304
31.288	1286
31.296	1270
31.304	1255.99999999999
31.312	1242
31.32	1229
31.328	1217
31.336	1205
31.344	1195
31.352	1186
31.36	1176
31.368	1165
31.376	1155
31.384	1145
31.392	1135
31.4	1125
31.408	1115
31.416	1107
31.424	1101
31.432	1094
31.44	1085
31.448	1077
31.456	1068
31.464	1057
31.472	1047
31.48	1040
31.488	1041
31.496	1062.00000000001
31.504	1102
31.512	1165
31.52	1263
31.528	1399.00000000007
31.536	1565
31.544	1753
31.552	1958
31.56	2166.00000000009
31.568	2371
31.576	2564
31.584	2730
31.592	2860.00000000005
31.6	2959
31.608	3030
31.616	3064
31.624	3065
31.632	3043
31.64	3003
31.648	2947
31.656	2877.99999999997
31.664	2800
31.672	2716
31.68	2625
31.688	2527.99999999996
31.696	2426
31.704	2321
31.712	2213
31.72	2100.99999999995
31.728	1988
31.736	1876
31.744	1767
31.752	1667
31.76	1575
31.768	1492
31.776	1421
31.784	1366
31.792	1323
31.8	1291
31.808	1272
31.816	1265
31.824	1270
31.832	1282
31.84	1299
31.848	1321
31.856	1346
31.864	1371
31.872	1395
31.88	1416
31.888	1433
31.896	1447
31.904	1457
31.912	1460
31.92	1457
31.928	1453
31.936	1446
31.944	1435
31.952	1423
31.96	1409
31.968	1392
31.976	1373
31.984	1355
31.992	1338
32	1311
32.008	1294
32.016	1278
32.024	1248
32.032	1233.99999999999
32.04	1221
32.048	1203
32.056	1191
32.064	1180
32.072	1170
32.08	1157
32.088	1149
32.096	1140.99999999999
32.104	1123
32.112	1115
32.12	1108
32.128	1096
32.136	1087
32.144	1078
32.152	1068
32.16	1057.99999999999
32.168	1048
32.176	1040
32.184	1039
32.192	1052
32.2	1088
32.208	1147
32.216	1233
32.224	1355.00000000012
32.232	1515
32.24	1702
32.248	1904
32.256	2116
32.264	2323
32.272	2519
32.28	2695
32.288	2840.00000000011
32.296	2945
32.304	3017
32.312	3063
32.32	3077
32.328	3061
32.336	3025
32.344	2974
32.352	2908.99999999994
32.36	2834
32.368	2752
32.376	2665
32.384	2572
32.392	2472
32.4	2367
32.408	2260
32.416	2148.9999999999
32.424	2036
32.432	1923
32.44	1814
32.448	1710
32.456	1615
32.464	1530
32.472	1455
32.48	1392.99999999995
32.488	1345
32.496	1310
32.504	1287
32.512	1278
32.52	1279
32.528	1288
32.536	1302
32.544	1321.00000000002
32.552	1343
32.56	1367
32.568	1391
32.576	1413
32.584	1430
32.592	1441
32.6	1450
32.608	1454
32.616	1453
32.624	1450
32.632	1444
32.64	1434
32.648	1421
32.656	1407
32.664	1392
32.672	1374.99999999998
32.68	1358
32.688	1340
32.696	1321
32.704	1302
32.712	1283
32.72	1267
32.728	1252
32.736	1236.99999999999
32.744	1224
32.752	1211
32.76	1200
32.768	1189
32.776	1179
32.784	1169
32.792	1158
32.8	1146
32.808	1135
32.816	1126
32.824	1117
32.832	1109
32.84	1101
32.848	1094
32.856	1086
32.864	1077
32.872	1068
32.88	1058
32.888	1048
32.896	1038
32.904	1031
32.912	1028
32.92	1034
32.928	1059
32.936	1114
32.944	1196
32.952	1306
32.96	1453
32.968	1633
32.976	1834
32.984	2044
32.992	2255
33	2453
33.008	2633
33.016	2789
33.024	2911
33.032	2995.00000000006
33.04	3047
33.048	3071
33.056	3065
33.064	3034
33.072	2985
33.08	2925
33.088	2854
33.096	2772.99999999993
33.104	2686
33.112	2594
33.12	2496
33.128	2391
33.136	2283
33.144	2173
33.152	2060
33.16	1946.9999999999
33.168	1837
33.176	1730
33.184	1630
33.192	1541
33.2	1462
33.208	1393
33.216	1339
33.224	1300.99999999997
33.232	1275
33.24	1260
33.248	1257
33.256	1264
33.264	1278
33.272	1297
33.28	1320
33.288	1343.00000000002
33.296	1366
33.304	1387
33.312	1406
33.32	1420
33.328	1429
33.336	1435
33.344	1437
33.352	1435
33.36	1429
33.368	1419
33.376	1407
33.384	1393
33.392	1377
33.4	1360
33.408	1342
33.416	1323.99999999998
33.424	1306
33.432	1288
33.44	1270
33.448	1253
33.456	1237
33.464	1222
33.472	1208
33.48	1194.99999999999
33.488	1184
33.496	1174
33.504	1165
33.512	1156
33.52	1146
33.528	1137
33.536	1128
33.544	1117.99999999999
33.552	1108
33.56	1097
33.568	1088
33.576	1080
33.584	1073
33.592	1067
33.6	1060
33.608	1049.99999999999
33.616	1039
33.624	1029
33.632	1018
33.64	1012
33.648	1015
33.656	1032
33.664	1070
33.672	1141.00000000007
33.68	1244
33.688	1374
33.696	1538
33.704	1731
33.712	1941
33.72	2154
33.728	2362
33.736	2550.00000000016
33.744	2714
33.752	2853
33.76	2957
33.768	3020
33.776	3051
33.784	3059
33.792	3040
33.8	2997
33.808	2940
33.816	2872
33.824	2794
33.832	2708
33.84	2617
33.848	2524
33.856	2424
33.864	2318
33.872	2209
33.88	2098
33.888	1984
33.896	1872
33.904	1764
33.912	1661
33.92	1567
33.928	1485
33.936	1414
33.944	1353
33.952	1307
33.96	1275
33.968	1255
33.976	1246
33.984	1247
33.992	1259
34	1278
34.008	1299
34.016	1322
34.024	1345
34.032	1368.00000000002
34.04	1387
34.048	1403
34.056	1414
34.064	1419
34.072	1422
34.08	1421
34.088	1417
34.096	1409.99999999999
34.104	1399
34.112	1386
34.12	1371
34.128	1356
34.136	1339
34.144	1322
34.152	1303
34.16	1283.99999999998
34.168	1266
34.176	1249
34.184	1233
34.192	1217
34.2	1202
34.208	1188
34.216	1176
34.224	1164.99999999999
34.232	1155
34.24	1145
34.248	1135
34.256	1125
34.264	1116
34.272	1108
34.28	1100
34.288	1091.99999999999
34.296	1083
34.304	1074
34.312	1065
34.32	1057
34.328	1049
34.336	1041
34.344	1032
34.352	1020.99999999999
34.36	1011
34.368	1003
34.376	1003
34.384	1014
34.392	1041
34.4	1096
34.408	1188
34.416	1313.00000000012
34.424	1466
34.432	1648
34.44	1852
34.448	2067
34.456	2281
34.464	2482
34.472	2654
34.48	2798.00000000011
34.488	2914
34.496	2993
34.504	3035
34.512	3047
34.52	3036
34.528	3002
34.536	2949
34.544	2883.99999999994
34.552	2810
34.56	2728
34.568	2639
34.576	2546
34.584	2448
34.592	2343
34.6	2233
34.608	2120.9999999999
34.616	2009
34.624	1897
34.632	1788
34.64	1683
34.648	1585
34.656	1497
34.664	1421
34.672	1356.99999999995
34.68	1306
34.688	1269
34.696	1247
34.704	1237
34.712	1237
34.72	1247
34.728	1263
34.736	1283.00000000002
34.744	1307
34.752	1332
34.76	1355
34.768	1378
34.776	1398
34.784	1413
34.792	1423
34.8	1428
34.808	1428
34.816	1425
34.824	1420
34.832	1410
34.84	1398
34.848	1384
34.856	1367
34.864	1350
34.872	1332
34.88	1314
34.888	1295
34.896	1276
34.904	1259
34.912	1244
34.92	1228
34.928	1213
34.936	1200
34.944	1186
34.952	1173
34.96	1162
34.968	1151
34.976	1141
34.984	1132
34.992	1124
35	1116
35.008	1108
35.016	1100
35.024	1092
35.032	1083.99999999999
35.04	1077
35.048	1071
35.056	1065
35.064	1060
35.072	1054
35.08	1046
35.088	1037
35.096	1029
35.104	1025
35.112	1034
35.12	1057
35.128	1101
35.136	1178
35.144	1295
35.152	1445
35.16	1620.00000000017
35.168	1820
35.176	2034
35.184	2252
35.192	2462
35.2	2650
35.208	2803
35.216	2925
35.224	3017.00000000006
35.232	3071
35.24	3089
35.248	3080
35.256	3050
35.264	3001
35.272	2938
35.28	2864
35.288	2782.99999999993
35.296	2696
35.304	2602
35.312	2504
35.32	2402
35.328	2294
35.336	2182
35.344	2069
35.352	1956.9999999999
35.36	1846
35.368	1739
35.376	1638
35.384	1543
35.392	1461
35.4	1394
35.408	1338
35.416	1292.99999999997
35.424	1262
35.432	1245
35.44	1240
35.448	1243
35.456	1256
35.464	1274
35.472	1297
35.48	1323.00000000002
35.488	1347
35.496	1368
35.504	1386
35.512	1402
35.52	1414
35.528	1421
35.536	1425
35.544	1425
35.552	1421
35.56	1413
35.568	1402
35.576	1389
35.584	1375
35.592	1359
35.6	1341
35.608	1321.99999999998
35.616	1303
35.624	1285
35.632	1267
35.64	1250
35.648	1234
35.656	1219
35.664	1205
35.672	1191.99999999999
35.68	1179
35.688	1168
35.696	1158
35.704	1148
35.712	1138
35.72	1128
35.728	1118
35.736	1108.99999999999
35.744	1101
35.752	1093
35.76	1085
35.768	1077
35.776	1069
35.784	1061
35.792	1054
35.8	1046.99999999999
35.808	1039
35.816	1030
35.824	1020
35.832	1011
35.84	1007
35.848	1016
35.856	1040
35.864	1086
35.872	1165
35.88	1283
35.888	1434
35.896	1611
35.904	1813
35.912	2026
35.92	2241
35.928	2448
35.936	2632
35.944	2783
35.952	2903
35.96	2993
35.968	3047
35.976	3064
35.984	3053
35.992	3024
36	2976
36.008	2912
36.016	2838
36.024	2758
36.032	2671.99999999992
36.04	2580
36.048	2483
36.056	2382
36.064	2274
36.072	2162
36.08	2048
36.088	1935
36.096	1823.9999999999
36.104	1716
36.112	1615
36.12	1523
36.128	1442
36.136	1373
36.144	1317
36.152	1273
36.16	1242.99999999998
36.168	1227
36.176	1222
36.184	1226
36.192	1238
36.2	1256
36.208	1279
36.216	1305
36.224	1330.00000000002
36.232	1352
36.24	1372
36.248	1389
36.256	1402
36.264	1408
36.272	1409
36.28	1407
36.288	1399.99999999999
36.296	1389
36.304	1377
36.312	1363
36.32	1347
36.328	1329
36.336	1312
36.344	1295
36.352	1278.99999999999
36.36	1264
36.368	1248
36.376	1233
36.384	1219
36.392	1205
36.4	1192
36.408	1178
36.416	1164.99999999999
36.424	1154
36.432	1142
36.44	1131
36.448	1123
36.456	1115
36.464	1106
36.472	1097
36.48	1087.99999999999
36.488	1078
36.496	1069
36.504	1061
36.512	1052
36.52	1042
36.528	1034
36.536	1027
36.544	1019.99999999999
36.552	1010
36.56	998
36.568	987
36.576	980
36.584	984
36.592	1002
36.6	1038
36.608	1103.00000000007
36.616	1207
36.624	1343
36.632	1505
36.64	1696
36.648	1904
36.656	2117
36.664	2326
36.672	2517.00000000016
36.68	2678
36.688	2809
36.696	2911
36.704	2976
36.712	3003
36.72	3003
36.728	2982
36.736	2939.99999999996
36.744	2880
36.752	2808
36.76	2731
36.768	2648
36.776	2555
36.784	2458
36.792	2358
36.8	2252.9999999999
36.808	2143
36.816	2031
36.824	1920
36.832	1808
36.84	1700
36.848	1599
36.856	1507
36.864	1424.99999999993
36.872	1356
36.88	1299
36.888	1254
36.896	1222
36.904	1204
36.912	1197
36.92	1200
36.928	1211
36.936	1229
36.944	1253
36.952	1280
36.96	1306
36.968	1330
36.976	1352
36.984	1372
36.992	1387
37	1396
37.008	1400
37.016	1401
37.024	1399
37.032	1391.99999999999
37.04	1381
37.048	1370
37.056	1357
37.064	1342
37.072	1325
37.08	1308
37.088	1290
37.096	1272.99999999999
37.104	1257
37.112	1241
37.12	1225
37.128	1209
37.136	1195
37.144	1183
37.152	1171
37.16	1158.99999999999
37.168	1149
37.176	1140
37.184	1130
37.192	1121
37.2	1114
37.208	1107
37.216	1100
37.224	1090.99999999999
37.232	1082
37.24	1073
37.248	1065
37.256	1058
37.264	1051
37.272	1044
37.28	1036
37.288	1026.99999999999
37.296	1018
37.304	1009
37.312	1003
37.32	1007
37.328	1023
37.336	1055
37.344	1116
37.352	1215.0000000001
37.36	1347
37.368	1506
37.376	1692
37.384	1896
37.392	2108
37.4	2317
37.408	2511
37.416	2674.00000000013
37.424	2809
37.432	2917
37.44	2987
37.448	3020
37.456	3025
37.464	3009
37.472	2970
37.48	2911.99999999994
37.488	2843
37.496	2767
37.504	2682
37.512	2588
37.52	2490
37.528	2389
37.536	2283
37.544	2172.9999999999
37.552	2061
37.56	1949
37.568	1839
37.576	1734
37.584	1634
37.592	1541
37.6	1459
37.608	1388.99999999994
37.616	1330
37.624	1282
37.632	1248
37.64	1228
37.648	1219
37.656	1220
37.664	1229
37.672	1246.00000000002
37.68	1268
37.688	1293
37.696	1319
37.704	1343
37.712	1365
37.72	1384
37.728	1399
37.736	1410.00000000001
37.744	1415
37.752	1418
37.76	1417
37.768	1412
37.776	1404
37.784	1395
37.792	1384
37.8	1368.99999999999
37.808	1353
37.816	1336
37.824	1317
37.832	1299
37.84	1282
37.848	1264
37.856	1247
37.864	1230.99999999999
37.872	1216
37.88	1203
37.888	1191
37.896	1179
37.904	1168
37.912	1158
37.92	1148
37.928	1138
37.936	1130
37.944	1123
37.952	1116
37.96	1107
37.968	1098
37.976	1091
37.984	1086
37.992	1078
38	1070
38.008	1064
38.016	1057
38.024	1048
38.032	1037.99999999999
38.04	1030
38.048	1024
38.056	1028
38.064	1045
38.072	1079
38.08	1142
38.088	1244
38.096	1379.00000000013
38.104	1540
38.112	1729
38.12	1935
38.128	2146
38.136	2351
38.144	2540
38.152	2700
38.16	2831.0000000001
38.168	2934
38.176	3000
38.184	3029
38.192	3031
38.2	3012
38.208	2971
38.216	2913
38.224	2842.99999999993
38.232	2765
38.24	2679
38.248	2586
38.256	2489
38.264	2389
38.272	2283
38.28	2174
38.288	2062.9999999999
38.296	1952
38.304	1842
38.312	1736
38.32	1635
38.328	1542
38.336	1458
38.344	1387
38.352	1328.99999999995
38.36	1282
38.368	1247
38.376	1227
38.384	1219
38.392	1220
38.4	1230
38.408	1248
38.416	1271.00000000002
38.424	1297
38.432	1323
38.44	1347
38.448	1370
38.456	1390
38.464	1405
38.472	1415
38.48	1421
38.488	1424
38.496	1422
38.504	1416
38.512	1408
38.52	1398
38.528	1385
38.536	1370
38.544	1353.99999999999
38.552	1338
38.56	1320
38.568	1302
38.576	1284
38.584	1266
38.592	1250
38.6	1235
38.608	1220.99999999999
38.616	1208
38.624	1195
38.632	1183
38.64	1172
38.648	1161
38.656	1151
38.664	1142
38.672	1132.99999999999
38.68	1124
38.688	1114
38.696	1105
38.704	1097
38.712	1090
38.72	1083
38.728	1076
38.736	1068.99999999999
38.744	1063
38.752	1056
38.76	1047
38.768	1038
38.776	1029
38.784	1023
38.792	1027
38.8	1043.00000000002
38.808	1076
38.816	1138
38.824	1239
38.832	1373
38.84	1533
38.848	1722
38.856	1928
38.864	2141.00000000019
38.872	2351
38.88	2545
38.888	2709
38.896	2843
38.904	2948
38.912	3015
38.92	3045
38.928	3047
38.936	3028
38.944	2986
38.952	2926
38.96	2855
38.968	2778
38.976	2693
38.984	2600
38.992	2502
39	2402
39.008	2297
39.016	2188
39.024	2075
39.032	1961.9999999999
39.04	1850
39.048	1742
39.056	1639
39.064	1544
39.072	1458
39.08	1385
39.088	1325
39.096	1275.99999999996
39.104	1240
39.112	1219
39.12	1211
39.128	1212
39.136	1222
39.144	1240
39.152	1263
39.16	1289.00000000002
39.168	1316
39.176	1342
39.184	1367
39.192	1390
39.2	1407
39.208	1419
39.216	1426
39.224	1429
39.232	1428
39.24	1422
39.248	1414
39.256	1403
39.264	1390
39.272	1374
39.28	1357
39.288	1340.99999999998
39.296	1323
39.304	1304
39.312	1285
39.32	1268
39.328	1252
39.336	1236
39.344	1221
39.352	1207.99999999999
39.36	1195
39.368	1183
39.376	1172
39.384	1161
39.392	1151
39.4	1142
39.408	1132
39.416	1121.99999999999
39.424	1113
39.432	1105
39.44	1098
39.448	1091
39.456	1085
39.464	1079
39.472	1072
39.48	1064.99999999999
39.488	1059
39.496	1050
39.504	1039
39.512	1031
39.52	1026
39.528	1030
39.536	1048
39.544	1084.00000000004
39.552	1149
39.56	1254
39.568	1392
39.576	1557
39.584	1750
39.592	1959
39.6	2174
39.608	2383.00000000018
39.616	2575
39.624	2735
39.632	2866
39.64	2968
39.648	3033
39.656	3062
39.664	3062
39.672	3039.99999999997
39.68	2996
39.688	2934
39.696	2861
39.704	2782
39.712	2696
39.72	2603
39.728	2505
39.736	2403.99999999991
39.744	2298
39.752	2187
39.76	2074
39.768	1960
39.776	1847
39.784	1739
39.792	1637
39.8	1542.99999999992
39.808	1458
39.816	1385
39.824	1325
39.832	1277
39.84	1243
39.848	1222
39.856	1212
39.864	1213
39.872	1225
39.88	1244
39.888	1266
39.896	1291
39.904	1319
39.912	1345
39.92	1368
39.928	1388.00000000002
39.936	1404
39.944	1415
39.952	1423
39.96	1427
39.968	1426
39.976	1421
39.984	1413
39.992	1402
40	1389
40.008	1374
40.016	1356
40.024	1338
40.032	1319.99999999998
40.04	1301
40.048	1283
40.056	1267
40.064	1252
40.072	1236
40.08	1221
40.088	1209
40.096	1197.99999999999
40.104	1186
40.112	1174
40.12	1163
40.128	1153
40.136	1143
40.144	1134
40.152	1125
40.16	1115.99999999999
40.168	1107
40.176	1100
40.184	1092
40.192	1084
40.2	1077
40.208	1072
40.216	1065
40.224	1056.99999999999
40.232	1049
40.24	1040
40.248	1030
40.256	1023
40.264	1025
40.272	1038
40.28	1069
40.288	1130.00000000007
40.296	1228
40.304	1358
40.312	1515
40.32	1703
40.328	1910
40.336	2124
40.344	2335
40.352	2531.00000000016
40.36	2698
40.368	2836
40.376	2945
40.384	3017
40.392	3051
40.4	3057
40.408	3041
40.416	3001.99999999996
40.424	2944
40.432	2874
40.44	2796
40.448	2710
40.456	2618
40.464	2521
40.472	2420
40.48	2313.9999999999
40.488	2204
40.496	2093
40.504	1983
40.512	1872
40.52	1763
40.528	1660
40.536	1564
40.544	1477.99999999993
40.552	1405
40.56	1344
40.568	1293
40.576	1256
40.584	1232
40.592	1220
40.6	1218
40.608	1226.00000000001
40.616	1242
40.624	1264
40.632	1289
40.64	1315
40.648	1339
40.656	1363
40.664	1385
40.672	1401.00000000001
40.68	1412
40.688	1420
40.696	1425
40.704	1426
40.712	1422
40.72	1416
40.728	1408
40.736	1396.99999999999
40.744	1385
40.752	1371
40.76	1355
40.768	1338
40.776	1320
40.784	1302
40.792	1285
40.8	1268.99999999999
40.808	1253
40.816	1237
40.824	1222
40.832	1209
40.84	1198
40.848	1186
40.856	1176
40.864	1166.99999999999
40.872	1157
40.88	1147
40.888	1138
40.896	1129
40.904	1120
40.912	1111
40.92	1104
40.928	1095.99999999999
40.936	1088
40.944	1080
40.952	1073
40.96	1066
40.968	1057
40.976	1049
40.984	1041
40.992	1034
41	1035
41.008	1048
41.016	1076
41.024	1131
41.032	1225.0000000001
41.04	1352
41.048	1507
41.056	1695
41.064	1904
41.072	2121
41.08	2335
41.088	2536
41.096	2709.00000000014
41.104	2853
41.112	2969
41.12	3048
41.128	3085
41.136	3093
41.144	3079
41.152	3041
41.16	2982.99999999994
41.168	2912
41.176	2835
41.184	2752
41.192	2660
41.2	2563
41.208	2464
41.216	2360
41.224	2251.9999999999
41.232	2142
41.24	2030
41.248	1917
41.256	1807
41.264	1702
41.272	1603
41.28	1513
41.288	1435.99999999994
41.296	1371
41.304	1318
41.312	1278
41.32	1252
41.328	1238
41.336	1234
41.344	1240
41.352	1255.00000000002
41.36	1277
41.368	1302
41.376	1328
41.384	1354
41.392	1378
41.4	1400
41.408	1419
41.416	1433.00000000001
41.424	1442
41.432	1446
41.44	1446
41.448	1443
41.456	1437
41.464	1428
41.472	1416
41.48	1400.99999999999
41.488	1384
41.496	1366
41.504	1348
41.512	1329
41.52	1311
41.528	1293
41.536	1275
41.544	1257.99999999998
41.552	1241
41.56	1226
41.568	1213
41.576	1202
41.584	1190
41.592	1178
41.6	1167
41.608	1156.99999999999
41.616	1148
41.624	1140
41.632	1131
41.64	1122
41.648	1113
41.656	1106
41.664	1098
41.672	1089.99999999999
41.68	1084
41.688	1078
41.696	1071
41.704	1063
41.712	1054
41.72	1045
41.728	1038
41.736	1036
41.744	1043
41.752	1066
41.76	1114
41.768	1198
41.776	1315
41.784	1463
41.792	1643
41.8	1845.00000000018
41.808	2059
41.816	2273
41.824	2476
41.832	2653
41.84	2804
41.848	2927
41.856	3013
41.864	3059.00000000002
41.872	3075
41.88	3067
41.888	3034
41.896	2980
41.904	2913
41.912	2839
41.92	2756
41.928	2664.99999999992
41.936	2571
41.944	2474
41.952	2371
41.96	2263
41.968	2153
41.976	2043
41.984	1933
41.992	1825
42	1720
42.008	1620
42.016	1528
42.024	1448
42.032	1379.99999999994
42.04	1323
42.048	1280
42.056	1250
42.064	1232
42.072	1225
42.08	1229
42.088	1242
42.096	1261.00000000002
42.104	1285
42.112	1312
42.12	1338
42.128	1363
42.136	1388
42.144	1409
42.152	1424
42.16	1434.00000000001
42.168	1441
42.176	1444
42.184	1441
42.192	1435
42.2	1425
42.208	1412
42.216	1398
42.224	1382.99999999999
42.232	1367
42.24	1349
42.248	1330
42.256	1311
42.264	1293
42.272	1264
42.28	1247
42.288	1230.99999999998
42.296	1198
42.304	1182
42.312	1168
42.32	1144
42.328	1134
42.336	1126
42.344	1111
42.352	1103.99999999999
42.36	1098
42.368	1089
42.376	1083
42.384	1077
42.392	1071
42.4	1064
42.408	1056
42.416	1046.99999999999
42.424	1038
42.432	1029
42.44	1025
42.448	1027
42.456	1039
42.464	1073
42.472	1141
42.48	1238.0000000001
42.488	1363
42.496	1524
42.504	1713
42.512	1920
42.52	2132
42.528	2340
42.536	2528
42.544	2693.00000000013
42.552	2833
42.56	2937
42.568	3001
42.576	3034
42.584	3042
42.592	3022
42.6	2978
42.608	2918.99999999994
42.616	2851
42.624	2774
42.632	2688
42.64	2597
42.648	2503
42.656	2402
42.664	2295
42.672	2185.9999999999
42.68	2075
42.688	1963
42.696	1852
42.704	1744
42.712	1640
42.72	1545
42.728	1463
42.736	1390.99999999994
42.744	1328
42.752	1278
42.76	1244
42.768	1222
42.776	1209
42.784	1207
42.792	1216
42.8	1232.00000000002
42.808	1253
42.816	1279
42.824	1306
42.832	1332
42.84	1358
42.848	1381
42.856	1399
42.864	1412.00000000001
42.872	1421
42.88	1426
42.888	1425
42.896	1421
42.904	1415
42.912	1406
42.92	1393
42.928	1378.99999999999
42.936	1364
42.944	1347
42.952	1329
42.96	1311
42.968	1294
42.976	1276
42.984	1257
42.992	1239.99999999999
43	1225
43.008	1212
43.016	1199
43.024	1187
43.032	1174.99999999999
43.04	1164
43.048	1154
43.056	1145
43.064	1137
43.072	1128
43.08	1118
43.088	1109
43.096	1103
43.104	1098
43.112	1090
43.12	1082
43.128	1076
43.136	1070
43.144	1063
43.152	1056
43.16	1047.99999999999
43.168	1040
43.176	1033
43.184	1029
43.192	1031
43.2	1048
43.208	1092
43.216	1161
43.224	1259.0000000001
43.232	1394
43.24	1563
43.248	1759
43.256	1967
43.264	2179
43.272	2380
43.28	2564
43.288	2727.00000000013
43.296	2858
43.304	2950
43.312	3009
43.32	3041
43.328	3043
43.336	3017
43.344	2971
43.352	2911.99999999994
43.36	2841
43.368	2761
43.376	2673
43.384	2581
43.392	2484
43.4	2380
43.408	2273
43.416	2164.9999999999
43.424	2055
43.432	1945
43.44	1836
43.448	1729
43.456	1629
43.464	1539
43.472	1458
43.48	1385.99999999994
43.488	1327
43.496	1283
43.504	1251
43.512	1230
43.52	1221
43.528	1223
43.536	1233
43.544	1250.00000000002
43.552	1273
43.56	1300
43.568	1328
43.576	1355
43.584	1380
43.592	1401
43.6	1417
43.608	1429.00000000001
43.616	1437
43.624	1439
43.632	1438
43.64	1435
43.648	1429
43.656	1419
43.664	1407
43.672	1393.99999999999
43.68	1378
43.688	1360
43.696	1341
43.704	1323
43.712	1305
43.72	1287
43.728	1270
43.736	1252.99999999999
43.744	1238
43.752	1223
43.76	1210
43.768	1198
43.776	1187
43.784	1177
43.792	1168
43.8	1159.99999999999
43.808	1151
43.816	1142
43.824	1133
43.832	1125
43.84	1117
43.848	1109
43.856	1102
43.864	1094.99999999999
43.872	1088
43.88	1080
43.888	1073
43.896	1066
43.904	1056
43.912	1047
43.92	1041
43.928	1041
43.936	1054
43.944	1091
43.952	1153
43.96	1241
43.968	1366
43.976	1528
43.984	1716
43.992	1918.00000000018
44	2128
44.008	2331
44.016	2522
44.024	2693
44.032	2833.00000000011
44.04	2935
44.048	3005
44.056	3046
44.064	3055
44.072	3036
44.08	2995
44.088	2941
44.096	2873.99999999994
44.104	2796
44.112	2711
44.12	2621
44.128	2526
44.136	2425
44.144	2321
44.152	2216
44.16	2106.9999999999
44.168	1996
44.176	1885
44.184	1778
44.192	1676
44.2	1582
44.208	1497
44.216	1422
44.224	1357.99999999995
44.232	1309
44.24	1273
44.248	1248
44.256	1235
44.264	1233
44.272	1239
44.28	1253
44.288	1274.00000000002
44.296	1298
44.304	1324
44.312	1351
44.32	1377
44.328	1398
44.336	1415
44.344	1429
44.352	1438.00000000001
44.36	1442
44.368	1442
44.376	1439
44.384	1434
44.392	1425
44.4	1414
44.408	1400
44.416	1383.99999999999
44.424	1367
44.432	1350
44.44	1332
44.448	1313
44.456	1296
44.464	1279
44.472	1262
44.48	1245.99999999999
44.488	1231
44.496	1218
44.504	1206
44.512	1194
44.52	1183
44.528	1174
44.536	1164
44.544	1153.99999999999
44.552	1145
44.56	1137
44.568	1129
44.576	1121
44.584	1113
44.592	1106
44.6	1099
44.608	1092.99999999999
44.616	1087
44.624	1080
44.632	1072
44.64	1063
44.648	1054
44.656	1045
44.664	1042
44.672	1051.00000000001
44.68	1084
44.688	1139
44.696	1220
44.704	1337
44.712	1493
44.72	1677
44.728	1877
44.736	2088.00000000019
44.744	2295
44.752	2491
44.76	2669
44.768	2817
44.776	2926
44.784	3003
44.792	3052
44.8	3067
44.808	3053
44.816	3017
44.824	2966
44.832	2900
44.84	2822
44.848	2737
44.856	2649
44.864	2555.99999999991
44.872	2456
44.88	2352
44.888	2246
44.896	2138
44.904	2028
44.912	1917
44.92	1810
44.928	1706.99999999991
44.936	1611
44.944	1523
44.952	1444
44.96	1376
44.968	1322
44.976	1281
44.984	1253
44.992	1236.99999999999
45	1233
45.008	1239
45.016	1252
45.024	1270
45.032	1293.00000000002
45.04	1320
45.048	1346
45.056	1370
45.064	1391
45.072	1409
45.08	1423
45.088	1433
45.096	1438
45.104	1439
45.112	1439
45.12	1435
45.128	1426
45.136	1414
45.144	1401
45.152	1386
45.16	1368.99999999998
45.168	1352
45.176	1334
45.184	1316
45.192	1298
45.2	1281
45.208	1265
45.216	1250
45.224	1234.99999999999
45.232	1221
45.24	1209
45.248	1198
45.256	1186
45.264	1175
45.272	1166
45.28	1157
45.288	1147.99999999999
45.296	1138
45.304	1129
45.312	1122
45.32	1115
45.328	1108
45.336	1100
45.344	1092
45.352	1084.99999999999
45.36	1079
45.368	1072
45.376	1063
45.384	1054
45.392	1045
45.4	1041
45.408	1048
45.416	1076.00000000003
45.424	1125
45.432	1199
45.44	1310
45.448	1459
45.456	1636
45.464	1830
45.472	2038
45.48	2244.00000000018
45.488	2441
45.496	2622
45.504	2773
45.512	2888
45.52	2971
45.528	3026
45.536	3047
45.544	3037.99999999999
45.552	3006
45.56	2959
45.568	2898
45.576	2823
45.584	2740
45.592	2653
45.6	2561
45.608	2462.99999999991
45.616	2362
45.624	2257
45.632	2150
45.64	2041
45.648	1931
45.656	1821
45.664	1715
45.672	1617.99999999992
45.68	1528
45.688	1446
45.696	1377
45.704	1323
45.712	1281
45.72	1250
45.728	1232
45.736	1227
45.744	1231
45.752	1242
45.76	1259
45.768	1281
45.776	1306
45.784	1332
45.792	1357
45.8	1379.00000000002
45.808	1398
45.816	1413
45.824	1424
45.832	1429
45.84	1431
45.848	1430
45.856	1425
45.864	1416.99999999999
45.872	1406
45.88	1393
45.888	1379
45.896	1364
45.904	1347
45.912	1330
45.92	1312
45.928	1293.99999999998
45.936	1277
45.944	1261
45.952	1245
45.96	1230
45.968	1216
45.976	1202
45.984	1189
45.992	1178.99999999999
46	1169
46.008	1160
46.016	1151
46.024	1142
46.032	1132.99999999999
46.04	1125
46.048	1118
46.056	1110.99999999999
46.064	1104
46.072	1096
46.08	1088
46.088	1081
46.096	1074.99999999999
46.104	1068
46.112	1059
46.12	1050
46.128	1041
46.136	1036
46.144	1040
46.152	1065
46.16	1111.00000000005
46.168	1181
46.176	1287
46.184	1432
46.192	1606
46.2	1798
46.208	2005
46.216	2213
46.224	2413.00000000017
46.232	2597
46.24	2752
46.248	2871
46.256	2959
46.264	3018
46.272	3043
46.28	3037
46.288	3008.99999999997
46.296	2965
46.304	2905
46.312	2832
46.32	2751
46.328	2666
46.336	2574
46.344	2476
46.352	2373.99999999991
46.36	2269
46.368	2162
46.376	2053
46.384	1943
46.392	1833
46.4	1727
46.408	1629
46.416	1537.99999999992
46.424	1455
46.432	1384
46.44	1326
46.448	1281
46.456	1248
46.464	1227
46.472	1219
46.48	1221
46.488	1231
46.496	1248
46.504	1269
46.512	1295
46.52	1323
46.528	1350
46.536	1373
46.544	1393.00000000002
46.552	1410
46.56	1424
46.568	1434
46.576	1439
46.584	1439
46.592	1434
46.6	1425
46.608	1413.99999999999
46.616	1401
46.624	1386
46.632	1369
46.64	1352
46.648	1334
46.656	1316
46.664	1298
46.672	1281.99999999999
46.68	1267
46.688	1252
46.696	1237
46.704	1225
46.712	1214
46.72	1202
46.728	1191
46.736	1181.99999999999
46.744	1172
46.752	1163
46.76	1155
46.768	1147
46.776	1140
46.784	1132
46.792	1124
46.8	1116.99999999999
46.808	1112
46.816	1106
46.824	1099
46.832	1093
46.84	1087
46.848	1078
46.856	1067
46.864	1057.99999999999
46.872	1052
46.88	1055
46.888	1078
46.896	1122
46.904	1191
46.912	1295
46.92	1437
46.928	1609.00000000016
46.936	1801
46.944	2008
46.952	2215
46.96	2416
46.968	2601
46.976	2759
46.984	2880
46.992	2969.00000000007
47	3031
47.008	3058
47.016	3053
47.024	3027
47.032	2983.99999999996
47.04	2925
47.048	2855
47.056	2776.99999999993
47.064	2693
47.072	2603
47.08	2508
47.088	2408
47.096	2304.99999999991
47.104	2199
47.112	2090
47.12	1980
47.128	1872
47.136	1767
47.144	1669
47.152	1579
47.16	1496.99999999993
47.168	1426
47.176	1369
47.184	1324
47.192	1290
47.2	1269
47.208	1259
47.216	1259
47.224	1267.00000000001
47.232	1283
47.24	1305
47.248	1329
47.256	1353
47.264	1377
47.272	1399
47.28	1418
47.288	1434.00000000001
47.296	1446
47.304	1452
47.312	1454
47.32	1453
47.328	1449
47.336	1441
47.344	1430
47.352	1416.99999999999
47.36	1403
47.368	1387
47.376	1369
47.384	1351
47.392	1333
47.4	1315
47.408	1298
47.416	1280.99999999999
47.424	1265
47.432	1249
47.44	1235
47.448	1223
47.456	1210
47.464	1197
47.472	1187
47.48	1177.99999999999
47.488	1168
47.496	1158
47.504	1149
47.512	1141
47.52	1133
47.528	1125
47.536	1117
47.544	1109.99999999999
47.552	1103
47.56	1096
47.568	1089
47.576	1083
47.584	1075
47.592	1066
47.6	1058
47.608	1053
47.616	1057
47.624	1082
47.632	1128
47.64	1199
47.648	1306
47.656	1450
47.664	1623
47.672	1815.00000000018
47.68	2021
47.688	2227
47.696	2425
47.704	2607
47.712	2761
47.72	2879
47.728	2966
47.736	3025.00000000003
47.744	3052
47.752	3046
47.76	3017
47.768	2973
47.776	2913
47.784	2840
47.792	2759
47.8	2674.99999999992
47.808	2585
47.816	2488
47.824	2387
47.832	2285
47.84	2179
47.848	2070
47.856	1959
47.864	1849.9999999999
47.872	1743
47.88	1643
47.888	1552
47.896	1469
47.904	1398
47.912	1340
47.92	1295
47.928	1261.99999999998
47.936	1240
47.944	1231
47.952	1233
47.96	1243
47.968	1261
47.976	1283
47.984	1307
47.992	1333.00000000002
48	1359
48.008	1382
48.016	1401
48.024	1418
48.032	1431.00000000001
48.04	1440
48.048	1444
48.056	1444
48.064	1439
48.072	1431
48.08	1421
48.088	1409
48.096	1395.99999999999
48.104	1381
48.112	1365
48.12	1348.99999999998
48.128	1331
48.136	1312
48.144	1294
48.152	1277
48.16	1261.99999999999
48.168	1246
48.176	1231
48.184	1218
48.192	1205
48.2	1194
48.208	1182
48.216	1171
48.224	1160.99999999999
48.232	1151
48.24	1142
48.248	1133
48.256	1124
48.264	1114
48.272	1105
48.28	1097
48.288	1088.99999999999
48.296	1080
48.304	1070
48.312	1060
48.32	1049
48.328	1040
48.336	1033
48.344	1031
48.352	1038.00000000001
48.36	1065
48.368	1114
48.376	1186
48.384	1293
48.392	1439
48.4	1614
48.408	1806
48.416	2011.00000000018
48.424	2215
48.432	2410
48.44	2588
48.448	2739
48.456	2855
48.464	2939
48.472	2995
48.48	3018
48.488	3010
48.496	2980
48.504	2935
48.512	2876
48.52	2803
48.528	2722
48.536	2635
48.544	2543.99999999992
48.552	2447
48.56	2346
48.568	2243
48.576	2138
48.584	2029
48.592	1920
48.6	1811
48.608	1705.99999999991
48.616	1608
48.624	1518
48.632	1437
48.64	1368
48.648	1312
48.656	1268
48.664	1235
48.672	1215.99999999999
48.68	1209
48.688	1213
48.696	1225
48.704	1243
48.712	1266
48.72	1292
48.728	1318
48.736	1343.00000000002
48.744	1366
48.752	1385
48.76	1401
48.768	1413
48.776	1420
48.784	1422
48.792	1422
48.8	1419
48.808	1413
48.816	1404
48.824	1393
48.832	1381
48.84	1366
48.848	1348
48.856	1330
48.864	1312.99999999999
48.872	1297
48.88	1281
48.888	1265
48.896	1250
48.904	1235
48.912	1221
48.92	1208
48.928	1195.99999999999
48.936	1185
48.944	1175
48.952	1165
48.96	1155
48.968	1146
48.976	1136
48.984	1127
48.992	1119.99999999999
49	1112
49.008	1104
49.016	1097
49.024	1091
49.032	1083.99999999999
49.04	1077
49.048	1070
49.056	1060.99999999999
49.064	1053
49.072	1045
49.08	1041
49.088	1047
49.096	1074.00000000003
49.104	1122
49.112	1194
49.12	1301.00000000011
49.128	1446
49.136	1618
49.144	1807
49.152	2010
49.16	2212.00000000018
49.168	2406
49.176	2584
49.184	2735
49.192	2851
49.2	2935
49.208	2991
49.216	3015
49.224	3008.99999999999
49.232	2980
49.24	2935
49.248	2876
49.256	2803
49.264	2722
49.272	2636
49.28	2545
49.288	2447.99999999991
49.296	2346
49.304	2242
49.312	2135
49.32	2026
49.328	1915
49.336	1806
49.344	1701
49.352	1603.99999999992
49.36	1515
49.368	1436
49.376	1367
49.384	1312
49.392	1268
49.4	1235
49.408	1216
49.416	1210
49.424	1215
49.432	1228
49.44	1248
49.448	1273
49.456	1301
49.464	1329
49.472	1355
49.48	1379.00000000002
49.488	1400
49.496	1416
49.504	1427
49.512	1433
49.52	1435
49.528	1435
49.536	1431
49.544	1423.99999999999
49.552	1415
49.56	1405
49.568	1392
49.576	1376
49.584	1360
49.592	1343
49.6	1326
49.608	1307.99999999998
49.616	1290
49.624	1273
49.632	1257
49.64	1242
49.648	1228
49.656	1215
49.664	1204
49.672	1192.99999999999
49.68	1183
49.688	1174
49.696	1164
49.704	1154
49.712	1145
49.72	1137
49.728	1130
49.736	1122.99999999999
49.744	1116
49.752	1109
49.76	1103
49.768	1096
49.776	1088
49.784	1080
49.792	1071
49.8	1062.99999999999
49.808	1058
49.816	1059
49.824	1074
49.832	1113
49.84	1177
49.848	1267
49.856	1392
49.864	1550.00000000015
49.872	1732
49.88	1928
49.888	2131
49.896	2327
49.904	2509
49.912	2672
49.92	2805
49.928	2901.00000000007
49.936	2966
49.944	3005
49.952	3014
49.96	2994
49.968	2955
49.976	2904
49.984	2838
49.992	2760.99999999993
50	2679
50.008	2592
50.016	2499
50.024	2401
50.032	2298.99999999991
50.04	2194
50.048	2085
50.056	1974.9999999999
50.064	1866
50.072	1761
50.08	1662
50.088	1570
50.096	1486.99999999993
50.104	1416
50.112	1357
50.12	1309.99999999996
50.128	1274
50.136	1250
50.144	1239
50.152	1240
50.16	1248.00000000001
50.168	1262
50.176	1282
50.184	1306
50.192	1332
50.2	1358
50.208	1382
50.216	1403
50.224	1421.00000000001
50.232	1434
50.24	1442
50.248	1446
50.256	1447
50.264	1446
50.272	1440
50.28	1430
50.288	1417.99999999999
50.296	1404
50.304	1388
50.312	1371
50.32	1354
50.328	1336
50.336	1318
50.344	1301
50.352	1284.99999999999
50.36	1269
50.368	1254
50.376	1241
50.384	1229
50.392	1216
50.4	1204
50.408	1193
50.416	1182.99999999999
50.424	1174
50.432	1165
50.44	1157
50.448	1149
50.456	1141
50.464	1133
50.472	1125
50.48	1117.99999999999
50.488	1111
50.496	1104
50.504	1095
50.512	1086
50.52	1077
50.528	1069
50.536	1064
50.544	1062
50.552	1070
50.56	1097
50.568	1153
50.576	1236
50.584	1345
50.592	1490
50.6	1665
50.608	1861.00000000018
50.616	2066
50.624	2269
50.632	2457
50.64	2627
50.648	2775
50.656	2889
50.664	2965
50.672	3011.00000000003
50.68	3032
50.688	3025
50.696	2994
50.704	2945
50.712	2885
50.72	2814
50.728	2733
50.736	2646.99999999992
50.744	2558
50.752	2463
50.76	2362
50.768	2257
50.776	2150
50.784	2040
50.792	1930
50.8	1821.99999999991
50.808	1719
50.816	1623
50.824	1537
50.832	1461
50.84	1394
50.848	1339
50.856	1299
50.864	1269.99999999998
50.872	1251
50.88	1245
50.888	1250
50.896	1262
50.904	1281
50.912	1306
50.92	1331
50.928	1357.00000000002
50.936	1382
50.944	1404
50.952	1423
50.96	1438
50.968	1447
50.976	1452
50.984	1453
50.992	1452
51	1447
51.008	1438
51.016	1425
51.024	1411
51.032	1396.99999999999
51.04	1382
51.048	1364
51.056	1345.99999999998
51.064	1328
51.072	1310
51.08	1293
51.088	1278
51.096	1262.99999999999
51.104	1249
51.112	1236
51.12	1223.99999999999
51.128	1212
51.136	1200
51.144	1189
51.152	1179
51.16	1169.99999999999
51.168	1160
51.176	1150
51.184	1140.99999999999
51.192	1134
51.2	1127
51.208	1120
51.216	1113
51.224	1106.99999999999
51.232	1100
51.24	1091
51.248	1082
51.256	1073
51.264	1066
51.272	1065
51.28	1073
51.288	1094.00000000003
51.296	1139
51.304	1221
51.312	1333
51.32	1471
51.328	1641
51.336	1834
51.344	2038
51.352	2242.00000000018
51.36	2436
51.368	2608
51.376	2756
51.384	2877
51.392	2964
51.4	3014
51.408	3035
51.416	3033
51.424	3006
51.432	2958
51.44	2897
51.448	2828
51.456	2750
51.464	2665
51.472	2575
51.48	2480.99999999991
51.488	2382
51.496	2277
51.504	2170
51.512	2062
51.52	1953
51.528	1845
51.536	1740
51.544	1639.99999999992
51.552	1549
51.56	1470
51.568	1402
51.576	1345
51.584	1301
51.592	1272
51.6	1254
51.608	1245
51.616	1247
51.624	1259
51.632	1278
51.64	1299
51.648	1323
51.656	1348
51.664	1372
51.672	1395.00000000002
51.68	1415
51.688	1430
51.696	1441
51.704	1449
51.712	1451
51.72	1447
51.728	1440
51.736	1430.99999999999
51.744	1420
51.752	1406
51.76	1391
51.768	1375
51.776	1358
51.784	1341
51.792	1324
51.8	1305.99999999998
51.808	1289
51.816	1273
51.824	1258
51.832	1243
51.84	1229
51.848	1216
51.856	1203
51.864	1191.99999999999
51.872	1182
51.88	1172
51.888	1162
51.896	1153
51.904	1145
51.912	1136
51.92	1127
51.928	1118.99999999999
51.936	1111
51.944	1104
51.952	1097
51.96	1091
51.968	1083
51.976	1074
51.984	1065
51.992	1057
52	1053
52.008	1064
52.016	1091
52.024	1138
52.032	1214.00000000008
52.04	1328
52.048	1474
52.056	1643.00000000016
52.064	1835
52.072	2038
52.08	2242
52.088	2438
52.096	2613.00000000014
52.104	2757
52.112	2873
52.12	2962.00000000006
52.128	3015
52.136	3034
52.144	3027
52.152	3001
52.16	2955.99999999995
52.168	2894
52.176	2821
52.184	2742.99999999993
52.192	2659
52.2	2569
52.208	2475
52.216	2377
52.224	2272.99999999991
52.232	2165
52.24	2055
52.248	1945
52.256	1837
52.264	1733
52.272	1634
52.28	1543
52.288	1463.99999999993
52.296	1396
52.304	1339
52.312	1295
52.32	1265
52.328	1248
52.336	1241
52.344	1243
52.352	1254.00000000001
52.36	1271
52.368	1293
52.376	1318
52.384	1343
52.392	1368
52.4	1391
52.408	1410
52.416	1424.00000000001
52.424	1434
52.432	1440
52.44	1442
52.448	1439
52.456	1433
52.464	1424
52.472	1412
52.48	1396.99999999999
52.488	1380
52.496	1362
52.504	1346
52.512	1330
52.52	1313
52.528	1297
52.536	1281
52.544	1264.99999999999
52.552	1249
52.56	1235
52.568	1222
52.576	1208
52.584	1196
52.592	1185
52.6	1175
52.608	1160.99999999999
52.616	1153
52.624	1145
52.632	1128
52.64	1119
52.648	1112
52.656	1099
52.664	1092
52.672	1083.99999999999
52.68	1070
52.688	1062
52.696	1057
52.704	1064
52.712	1095
52.72	1149
52.728	1227
52.736	1340.00000000011
52.744	1488
52.752	1663
52.76	1857
52.768	2063
52.776	2266
52.784	2458
52.792	2633
52.8	2780.00000000011
52.808	2891
52.816	2972
52.824	3025
52.832	3047
52.84	3039
52.848	3010
52.856	2965
52.864	2904.99999999994
52.872	2833
52.88	2754
52.888	2669
52.896	2579
52.904	2483
52.912	2383
52.92	2280
52.928	2171.9999999999
52.936	2062
52.944	1952
52.952	1844
52.96	1740
52.968	1644
52.976	1556
52.984	1476
52.992	1407.99999999995
53	1355
53.008	1315
53.016	1286
53.024	1269
53.032	1265
53.04	1271
53.048	1284
53.056	1303.00000000002
53.064	1326
53.072	1349
53.08	1374
53.088	1398
53.096	1418.00000000002
53.104	1434
53.112	1447
53.12	1457.00000000001
53.128	1461
53.136	1461
53.144	1458
53.152	1451
53.16	1441.99999999999
53.168	1429
53.176	1415
53.184	1399.99999999999
53.192	1383
53.2	1366
53.208	1348
53.216	1330
53.224	1311.99999999998
53.232	1295
53.24	1280
53.248	1264.99999999999
53.256	1252
53.264	1239
53.272	1227
53.28	1215
53.288	1203.99999999999
53.296	1194
53.304	1184
53.312	1174
53.32	1165
53.328	1156
53.336	1146
53.344	1137
53.352	1128.99999999999
53.36	1122
53.368	1115
53.376	1108
53.384	1100
53.392	1092
53.4	1084
53.408	1076
53.416	1070
53.424	1069
53.432	1079
53.44	1108
53.448	1167
53.456	1256
53.464	1372
53.472	1521
53.48	1701.00000000017
53.488	1901
53.496	2108
53.504	2312
53.512	2499
53.52	2667
53.528	2812
53.536	2922
53.544	2993.00000000005
53.552	3035
53.56	3052
53.568	3040
53.576	3005
53.584	2955
53.592	2894
53.6	2822
53.608	2740.99999999993
53.616	2655
53.624	2566
53.632	2470
53.64	2368
53.648	2263
53.656	2156
53.664	2046
53.672	1936.9999999999
53.68	1831
53.688	1728
53.696	1630
53.704	1542
53.712	1465
53.72	1399
53.728	1345
53.736	1304.99999999997
53.744	1277
53.752	1260
53.76	1255
53.768	1261
53.776	1275
53.784	1294
53.792	1316
53.8	1341.00000000002
53.808	1366
53.816	1389
53.824	1410
53.832	1425
53.84	1438
53.848	1447
53.856	1452
53.864	1452
53.872	1448
53.88	1440
53.888	1429
53.896	1417
53.904	1403
53.912	1387
53.92	1370
53.928	1351.99999999998
53.936	1334
53.944	1318
53.952	1302
53.96	1285
53.968	1270
53.976	1255
53.984	1241
53.992	1227.99999999999
54	1215
54.008	1203
54.016	1192
54.024	1182
54.032	1172.99999999999
54.04	1164
54.048	1154
54.056	1143.99999999999
54.064	1135
54.072	1128
54.08	1120
54.088	1112
54.096	1104.99999999999
54.104	1099
54.112	1092
54.12	1082.99999999999
54.128	1073
54.136	1063
54.144	1056
54.152	1058
54.16	1071.00000000002
54.168	1101
54.176	1158
54.184	1251.00000000009
54.192	1375
54.2	1524
54.208	1701
54.216	1897
54.224	2100.00000000018
54.232	2300
54.24	2487
54.248	2647.00000000013
54.256	2780
54.264	2886
54.272	2958
54.28	2994
54.288	3003
54.296	2991
54.304	2957
54.312	2906
54.32	2842
54.328	2772
54.336	2695
54.344	2610
54.352	2519.99999999992
54.36	2426
54.368	2326
54.376	2221
54.384	2114
54.392	2005
54.4	1896
54.408	1789
54.416	1687.99999999991
54.424	1593
54.432	1507
54.44	1433
54.448	1370
54.456	1318
54.464	1280
54.472	1256
54.48	1243
54.488	1240
54.496	1246
54.504	1260
54.512	1280
54.52	1303
54.528	1327
54.536	1350
54.544	1371.00000000002
54.552	1390
54.56	1406
54.568	1417
54.576	1423
54.584	1426
54.592	1425
54.6	1419
54.608	1409.99999999999
54.616	1399
54.624	1387
54.632	1373
54.64	1357
54.648	1341
54.656	1325
54.664	1309
54.672	1292.99999999999
54.68	1277
54.688	1261
54.696	1246
54.704	1231
54.712	1217
54.72	1204
54.728	1191
54.736	1179.99999999999
54.744	1169
54.752	1159
54.76	1149
54.768	1140
54.776	1132
54.784	1124
54.792	1116
54.8	1108.99999999999
54.808	1103
54.816	1096
54.824	1088
54.832	1080
54.84	1072
54.848	1063
54.856	1054
54.864	1044.99999999999
54.872	1039
54.88	1041
54.888	1062
54.896	1101
54.904	1162
54.912	1254
54.92	1382
54.928	1539.00000000015
54.936	1717
54.944	1912
54.952	2110
54.96	2305
54.968	2489
54.976	2649
54.984	2776
54.992	2873.00000000007
55	2943
55.008	2980
55.016	2986
55.024	2970
55.032	2936.99999999996
55.04	2887
55.048	2823
55.056	2749.99999999993
55.064	2670
55.072	2584
55.08	2492
55.088	2395
55.096	2293.99999999991
55.104	2188
55.112	2080
55.12	1969.9999999999
55.128	1861
55.136	1756
55.144	1656
55.152	1563
55.16	1479.99999999993
55.168	1409
55.176	1351
55.184	1304.99999999997
55.192	1271
55.2	1249
55.208	1240
55.216	1240
55.224	1248.00000000001
55.232	1265
55.24	1288
55.248	1312.00000000002
55.256	1336
55.264	1360
55.272	1382
55.28	1400
55.288	1413.00000000001
55.296	1423
55.304	1429
55.312	1430
55.32	1428
55.328	1424
55.336	1416
55.344	1405
55.352	1393.99999999999
55.36	1380
55.368	1364
55.376	1347
55.384	1330
55.392	1313
55.4	1296
55.408	1278
55.416	1260.99999999999
55.424	1246
55.432	1231
55.44	1218
55.448	1206
55.456	1195
55.464	1185
55.472	1174
55.48	1162.99999999999
55.488	1154
55.496	1144
55.504	1135
55.512	1128
55.52	1120
55.528	1112
55.536	1104
55.544	1096.99999999999
55.552	1091
55.56	1084
55.568	1076
55.576	1068
55.584	1060
55.592	1054
55.6	1051
55.608	1056.00000000001
55.616	1078
55.624	1128
55.632	1203
55.64	1305
55.648	1443
55.656	1613
55.664	1804
55.672	2005.00000000018
55.68	2209
55.688	2400
55.696	2573
55.704	2726
55.712	2846
55.72	2929
55.728	2982
55.736	3008
55.744	3006
55.752	2978
55.76	2932
55.768	2875
55.776	2807
55.784	2729
55.792	2644
55.8	2554.99999999992
55.808	2462
55.816	2361
55.824	2257
55.832	2152
55.84	2044
55.848	1935
55.856	1828
55.864	1723.99999999991
55.872	1627
55.88	1540
55.888	1462
55.896	1395
55.904	1341
55.912	1300
55.92	1270
55.928	1251.99999999999
55.936	1247
55.944	1253
55.952	1265
55.96	1282
55.968	1303
55.976	1326
55.984	1348
55.992	1369.00000000002
56	1388
56.008	1402
56.016	1414
56.024	1423
56.032	1428
56.04	1428
56.048	1424
56.056	1416.99999999999
56.064	1409
56.072	1398
56.08	1384
56.088	1370
56.096	1354.99999999999
56.104	1340
56.112	1324
56.12	1306.99999999998
56.128	1290
56.136	1273
56.144	1257
56.152	1242
56.16	1227.99999999999
56.168	1215
56.176	1203
56.184	1191.99999999999
56.192	1182
56.2	1172
56.208	1162
56.216	1152
56.224	1141.99999999999
56.232	1132
56.24	1123
56.248	1115.99999999999
56.256	1108
56.264	1100
56.272	1093
56.28	1087
56.288	1078.99999999999
56.296	1070
56.304	1060
56.312	1049.99999999999
56.32	1043
56.328	1046
56.336	1058
56.344	1085
56.352	1140.00000000006
56.36	1231
56.368	1353
56.376	1500
56.384	1675
56.392	1869
56.4	2071
56.408	2271
56.416	2459.00000000016
56.424	2622
56.432	2758
56.44	2867
56.448	2942
56.456	2980
56.464	2991
56.472	2981
56.48	2947.99999999996
56.488	2897
56.496	2835
56.504	2766
56.512	2688
56.52	2602
56.528	2512
56.536	2418
56.544	2317.99999999991
56.552	2213
56.56	2106
56.568	1997
56.576	1888
56.584	1781
56.592	1680
56.6	1585
56.608	1498.99999999993
56.616	1425
56.624	1364
56.632	1313
56.64	1275
56.648	1252
56.656	1239
56.664	1235
56.672	1241.00000000001
56.68	1255
56.688	1274
56.696	1295
56.704	1319
56.712	1343
56.72	1365
56.728	1384
56.736	1399.00000000001
56.744	1410
56.752	1417
56.76	1421
56.768	1420
56.776	1415
56.784	1408
56.792	1397
56.8	1383.99999999999
56.808	1369
56.816	1353
56.824	1337
56.832	1321
56.84	1304
56.848	1286
56.856	1269
56.864	1252.99999999999
56.872	1237
56.88	1223
56.888	1210
56.896	1196
56.904	1184
56.912	1174
56.92	1164
56.928	1152.99999999999
56.936	1143
56.944	1135
56.952	1127
56.96	1118
56.968	1109
56.976	1101
56.984	1093
56.992	1085.99999999999
57	1080
57.008	1074
57.016	1066
57.024	1057
57.032	1048.99999999999
57.04	1040
57.048	1033
57.056	1035
57.064	1055
57.072	1096
57.08	1158
57.088	1252
57.096	1384.00000000013
57.104	1546
57.112	1728
57.12	1926.00000000018
57.128	2127
57.136	2323
57.144	2505
57.152	2662
57.16	2785.00000000009
57.168	2878
57.176	2943
57.184	2977.00000000001
57.192	2980
57.2	2960
57.208	2923
57.216	2870
57.224	2803.99999999994
57.232	2730
57.24	2651
57.248	2566.99999999992
57.256	2476
57.264	2379
57.272	2279
57.28	2174
57.288	2063.9999999999
57.296	1954
57.304	1847
57.312	1742.99999999991
57.32	1645
57.328	1554
57.336	1471
57.344	1401
57.352	1343.99999999995
57.36	1298
57.368	1263
57.376	1241
57.384	1232
57.392	1233
57.4	1242
57.408	1257
57.416	1278.00000000002
57.424	1301
57.432	1324
57.44	1345
57.448	1364
57.456	1379
57.464	1392
57.472	1401
57.48	1406
57.488	1406
57.496	1404
57.504	1399
57.512	1390
57.52	1378
57.528	1365
57.536	1351
57.544	1334.99999999999
57.552	1318
57.56	1300
57.568	1282
57.576	1265
57.584	1249
57.592	1234
57.6	1219
57.608	1204.99999999999
57.616	1193
57.624	1182
57.632	1170
57.64	1159
57.648	1149
57.656	1139
57.664	1130
57.672	1120.99999999999
57.68	1112
57.688	1102
57.696	1093
57.704	1085
57.712	1079
57.72	1074
57.728	1066
57.736	1056.99999999999
57.744	1049
57.752	1041
57.76	1033
57.768	1026
57.776	1020
57.784	1021
57.792	1038
57.8	1081.00000000005
57.808	1151
57.816	1247
57.824	1378
57.832	1543
57.84	1732
57.848	1933
57.856	2140
57.864	2336.00000000017
57.872	2517
57.88	2678
57.888	2807
57.896	2899
57.904	2958
57.912	2989
57.92	2992
57.928	2968.99999999997
57.936	2929
57.944	2876
57.952	2810
57.96	2734
57.968	2652
57.976	2566
57.984	2474
57.992	2376.99999999991
58	2277
58.008	2172
58.016	2064
58.024	1955
58.032	1845.9999999999
58.04	1741
58.048	1643
58.056	1553.99999999992
58.064	1473
58.072	1401
58.08	1341
58.088	1296
58.096	1261.99999999997
58.104	1238
58.112	1227
58.12	1228
58.128	1237
58.136	1253
58.144	1274
58.152	1296
58.16	1319.00000000002
58.168	1342
58.176	1362
58.184	1379.00000000001
58.192	1392
58.2	1400
58.208	1404
58.216	1404
58.224	1402
58.232	1398
58.24	1390
58.248	1378.99999999999
58.256	1367
58.264	1353
58.272	1337
58.28	1320
58.288	1301.99999999998
58.296	1285
58.304	1268
58.312	1250.99999999999
58.32	1236
58.328	1220
58.336	1206
58.344	1194
58.352	1181.99999999999
58.36	1170
58.368	1159
58.376	1150
58.384	1140
58.392	1129
58.4	1119
58.408	1110
58.416	1100.99999999999
58.424	1093
58.432	1085
58.44	1077
58.448	1069
58.456	1062
58.464	1055
58.472	1047
58.48	1037.99999999999
58.488	1028
58.496	1018
58.504	1013
58.512	1015
58.52	1029
58.528	1065
58.536	1133
58.544	1230.0000000001
58.552	1354
58.56	1512
58.568	1697
58.576	1898
58.584	2104
58.592	2306
58.6	2488
58.608	2648.00000000013
58.616	2783
58.624	2884
58.632	2946
58.64	2978
58.648	2987
58.656	2971
58.664	2933
58.672	2880.99999999995
58.68	2819
58.688	2748
58.696	2668
58.704	2582
58.712	2493
58.72	2399
58.728	2299
58.736	2194.99999999991
58.744	2089
58.752	1981
58.76	1872
58.768	1766
58.776	1666
58.784	1573
58.792	1491
58.8	1418.99999999994
58.808	1357
58.816	1307
58.824	1272
58.832	1249
58.84	1236
58.848	1233
58.856	1240
58.864	1253.00000000001
58.872	1271
58.88	1293
58.888	1316
58.896	1337
58.904	1357
58.912	1375
58.92	1389
58.928	1399.00000000001
58.936	1406
58.944	1408
58.952	1406
58.96	1401
58.968	1394
58.976	1383
58.984	1370
58.992	1355.99999999999
59	1342
59.008	1327
59.016	1312
59.024	1296
59.032	1280.99999999999
59.04	1266
59.048	1249
59.056	1233.99999999999
59.064	1221
59.072	1210
59.08	1198
59.088	1187
59.096	1176.99999999999
59.104	1167
59.112	1157
59.12	1147.99999999999
59.128	1139
59.136	1130
59.144	1121
59.152	1113
59.16	1104.99999999999
59.168	1097
59.176	1089
59.184	1080.99999999999
59.192	1074
59.2	1066
59.208	1057
59.216	1048
59.224	1037.99999999999
59.232	1032
59.24	1036
59.248	1050.00000000002
59.256	1081
59.264	1141
59.272	1237
59.28	1364
59.288	1517.00000000015
59.296	1699
59.304	1898
59.312	2104.00000000018
59.32	2308
59.328	2497
59.336	2659
59.344	2794
59.352	2901.00000000008
59.36	2973
59.368	3008
59.376	3016
59.384	3003
59.392	2969
59.4	2917
59.408	2852
59.416	2778.99999999993
59.424	2699
59.432	2611
59.44	2519
59.448	2424
59.456	2323
59.464	2218
59.472	2110
59.48	2001.9999999999
59.488	1894
59.496	1788
59.504	1687
59.512	1594
59.52	1509
59.528	1436
59.536	1373
59.544	1320.99999999996
59.552	1283
59.56	1258
59.568	1243
59.576	1239
59.584	1245
59.592	1259
59.6	1278
59.608	1299.00000000002
59.616	1322
59.624	1343
59.632	1363
59.64	1382
59.648	1397
59.656	1407
59.664	1412
59.672	1414
59.68	1413
59.688	1409
59.696	1403
59.704	1394
59.712	1381
59.72	1366
59.728	1350
59.736	1333.99999999999
59.744	1317
59.752	1301
59.76	1285
59.768	1269
59.776	1253
59.784	1237
59.792	1222
59.8	1207.99999999999
59.808	1196
59.816	1185
59.824	1174
59.832	1163
59.84	1154
59.848	1144
59.856	1134
59.864	1124.99999999999
59.872	1117
59.88	1109
59.888	1102
59.896	1095
59.904	1088
59.912	1080
59.92	1072
59.928	1063.99999999999
59.936	1055
59.944	1046
59.952	1037
59.96	1029
59.968	1026
59.976	1038
59.984	1067
59.992	1117.00000000006
60	1198
60.008	1317
60.016	1468
60.024	1641
60.032	1836.00000000018
60.04	2039
60.048	2242
60.056	2435.00000000016
60.064	2608
60.072	2748
60.08	2858
60.088	2940
60.096	2988.00000000002
60.104	3002
60.112	2990
60.12	2959.99999999997
60.128	2913
60.136	2852
60.144	2780
60.152	2703
60.16	2620.99999999992
60.168	2531
60.176	2436
60.184	2336.99999999991
60.192	2234
60.2	2126
60.208	2015
60.216	1905
60.224	1797.99999999991
60.232	1695
60.24	1598
60.248	1507.99999999993
60.256	1429
60.264	1364
60.272	1308
60.28	1262
60.288	1230.99999999998
60.296	1214
60.304	1207
60.312	1210
60.32	1220
60.328	1237
60.336	1260
60.344	1284
60.352	1309.00000000002
60.36	1334
60.368	1357
60.376	1377.00000000001
60.384	1391
60.392	1400
60.4	1404
60.408	1405
60.416	1403
60.424	1396
60.432	1385
60.44	1374
60.448	1361
60.456	1346
60.464	1328
60.472	1310
60.48	1291.99999999998
60.488	1274
60.496	1258
60.504	1243
60.512	1228
60.52	1213
60.528	1199
60.536	1186
60.544	1172.99999999999
60.552	1160
60.56	1148
60.568	1138
60.576	1128
60.584	1118
60.592	1109
60.6	1101
60.608	1092.99999999999
60.616	1084
60.624	1075
60.632	1068
60.64	1061
60.648	1054
60.656	1046
60.664	1039
60.672	1031.99999999999
60.68	1023
60.688	1014
60.696	1008
60.704	1011
60.712	1032
60.72	1070
60.728	1130
60.736	1223.0000000001
60.744	1354
60.752	1514
60.76	1694
60.768	1891
60.776	2093
60.784	2291
60.792	2477
60.8	2638.00000000013
60.808	2763
60.816	2859
60.824	2928
60.832	2963
60.84	2967
60.848	2948
60.856	2911
60.864	2857.99999999995
60.872	2792
60.88	2718
60.888	2638
60.896	2551
60.904	2457
60.912	2358
60.92	2257
60.928	2152.99999999991
60.936	2045
60.944	1936
60.952	1827
60.96	1722
60.968	1623
60.976	1532
60.984	1449
60.992	1376.99999999994
61	1318
61.008	1271
61.016	1237
61.024	1216
61.032	1206
61.04	1206
61.048	1214
61.056	1230.00000000002
61.064	1251
61.072	1275
61.08	1300
61.088	1323
61.096	1345.00000000002
61.104	1365
61.112	1382
61.12	1394.00000000001
61.128	1400
61.136	1402
61.144	1402
61.152	1399
61.16	1391.99999999999
61.168	1381
61.176	1369
61.184	1355.99999999999
61.192	1341
61.2	1325
61.208	1308
61.216	1290
61.224	1273.99999999999
61.232	1258
61.24	1242
61.248	1227.99999999999
61.256	1214
61.264	1200
61.272	1187
61.28	1176
61.288	1164.99999999999
61.296	1155
61.304	1146
61.312	1136.99999999999
61.32	1129
61.328	1121
61.336	1113
61.344	1105
61.352	1096.99999999999
61.36	1090
61.368	1083
61.376	1075.99999999999
61.384	1068
61.392	1060
61.4	1052
61.408	1044
61.416	1036.99999999999
61.424	1031
61.432	1028
61.44	1035
61.448	1064
61.456	1114
61.464	1188
61.472	1297
61.48	1444.00000000014
61.488	1617
61.496	1808
61.504	2011
61.512	2212
61.52	2403
61.528	2578
61.536	2725
61.544	2837.00000000008
61.552	2918
61.56	2972
61.568	2994
61.576	2986
61.584	2957
61.592	2913
61.6	2853
61.608	2780.99999999993
61.616	2702
61.624	2617
61.632	2527
61.64	2431
61.648	2332
61.656	2229
61.664	2122
61.672	2011.9999999999
61.68	1902
61.688	1796
61.696	1694
61.704	1600
61.712	1515
61.72	1439
61.728	1374
61.736	1322.99999999996
61.744	1285
61.752	1257
61.76	1240
61.768	1234
61.776	1238
61.784	1249
61.792	1267
61.8	1288.00000000002
61.808	1310
61.816	1333
61.824	1356
61.832	1376
61.84	1393
61.848	1408
61.856	1419
61.864	1425
61.872	1426
61.88	1423
61.888	1417
61.896	1407
61.904	1395
61.912	1382
61.92	1367
61.928	1351.99999999999
61.936	1335
61.944	1318
61.952	1301
61.96	1285
61.968	1269
61.976	1254
61.984	1239
61.992	1224.99999999999
62	1212
62.008	1200
62.016	1189
62.024	1179
62.032	1169.99999999999
62.04	1160
62.048	1151
62.056	1142.99999999999
62.064	1134
62.072	1126
62.08	1118
62.088	1109
62.096	1101.99999999999
62.104	1096
62.112	1090
62.12	1082.99999999999
62.128	1076
62.136	1068
62.144	1059
62.152	1051
62.16	1045
62.168	1045
62.176	1058
62.184	1095.00000000004
62.192	1158
62.2	1247
62.208	1372
62.216	1531
62.224	1716.00000000017
62.232	1915
62.24	2121
62.248	2319.00000000017
62.256	2504
62.264	2668
62.272	2802
62.28	2900
62.288	2967.00000000004
62.296	3007
62.304	3015
62.312	2994.99999999998
62.32	2957
62.328	2907
62.336	2843
62.344	2767
62.352	2683.99999999992
62.36	2596
62.368	2503
62.376	2404.99999999991
62.384	2303
62.392	2198
62.4	2090
62.408	1981
62.416	1871.9999999999
62.424	1766
62.432	1667
62.44	1575.99999999992
62.448	1492
62.456	1419
62.464	1359
62.472	1312
62.48	1275.99999999997
62.488	1251
62.496	1239
62.504	1239
62.512	1248
62.52	1262
62.528	1281
62.536	1304
62.544	1329.00000000002
62.552	1354
62.56	1375
62.568	1394
62.576	1410
62.584	1422
62.592	1429
62.6	1432
62.608	1431
62.616	1428
62.624	1420
62.632	1409
62.64	1397
62.648	1382
62.656	1366
62.664	1350
62.672	1332.99999999998
62.68	1316
62.688	1298
62.696	1281
62.704	1265
62.712	1249
62.72	1235
62.728	1223
62.736	1210.99999999999
62.744	1199
62.752	1188
62.76	1177
62.768	1168
62.776	1159
62.784	1150
62.792	1141
62.8	1131.99999999999
62.808	1122
62.816	1114
62.824	1107
62.832	1101
62.84	1095
62.848	1089
62.856	1082
62.864	1073.99999999999
62.872	1065
62.88	1051
62.888	1046
62.896	1046
62.904	1094
62.912	1157
62.92	1246
62.928	1520.00000000019
62.936	1701
62.944	1898
62.952	2300
62.96	2485
62.968	2651
62.976	2850
62.984	2935
62.992	2989.00000000003
63	3017
63.008	3017
63.016	2990
63.024	2944
63.032	2885.99999999994
63.04	2817
63.048	2739
63.056	2653.99999999992
63.064	2564
63.072	2468
63.08	2366
63.088	2261
63.096	2154.9999999999
63.104	2046
63.112	1935
63.12	1825.9999999999
63.128	1721
63.136	1623
63.144	1535
63.152	1457
63.16	1388.99999999995
63.168	1334
63.176	1292
63.184	1261.99999999998
63.192	1243
63.2	1236
63.208	1239
63.216	1251
63.224	1269.00000000002
63.232	1291
63.24	1314
63.248	1338.00000000002
63.256	1362
63.264	1383
63.272	1400
63.28	1412
63.288	1422.00000000001
63.296	1429
63.304	1431
63.312	1428
63.32	1422
63.328	1413
63.336	1402
63.344	1389
63.352	1373.99999999999
63.36	1357
63.368	1340
63.376	1321.99999999998
63.384	1304
63.392	1286
63.4	1270
63.408	1255
63.416	1240.99999999999
63.424	1227
63.432	1213
63.44	1199.99999999999
63.448	1189
63.456	1180
63.464	1169
63.472	1159
63.48	1149.99999999999
63.488	1141
63.496	1133
63.504	1126
63.512	1119
63.52	1111
63.528	1102
63.536	1094
63.544	1086.99999999999
63.552	1081
63.56	1074
63.568	1065
63.576	1056
63.584	1046
63.592	1040
63.6	1040
63.608	1051.00000000001
63.616	1081
63.624	1140
63.632	1228
63.64	1345
63.648	1497
63.656	1678
63.664	1878
63.672	2086.00000000018
63.68	2291
63.688	2479
63.696	2646
63.704	2789
63.712	2899
63.72	2970
63.728	3010
63.736	3026
63.744	3014
63.752	2978
63.76	2926
63.768	2863
63.776	2791
63.784	2710
63.792	2622
63.8	2528.99999999992
63.808	2431
63.816	2329
63.824	2224
63.832	2115
63.84	2003
63.848	1892
63.856	1785
63.864	1682.99999999991
63.872	1587
63.88	1501
63.888	1425
63.896	1360
63.904	1308
63.912	1270
63.92	1244
63.928	1229
63.936	1227
63.944	1235
63.952	1250
63.96	1269
63.968	1293
63.976	1318
63.984	1341
63.992	1364.00000000002
64	1384
64.008	1400
64.016	1412
64.024	1420
64.032	1423
64.04	1423
64.048	1420
64.056	1413
64.064	1402.99999999998
64.072	1390
64.08	1375
64.088	1359.99999999997
64.096	1344
64.104	1328
64.112	1311
64.12	1294
64.128	1277
64.136	1261
64.144	1246
64.152	1231
64.16	1218
64.168	1205
64.176	1192
64.184	1180
64.192	1169.99999999998
64.2	1161
64.208	1152
64.216	1142.99999999999
64.224	1136
64.232	1127
64.24	1119
64.248	1112
64.256	1104
64.264	1097
64.272	1091
64.28	1084
64.288	1076
64.296	1068
64.304	1060
64.312	1051
64.32	1041.99999999999
64.328	1037
64.336	1039
64.344	1052.00000000003
64.352	1086
64.36	1154
64.368	1253
64.376	1380
64.384	1539
64.392	1726
64.4	1929
64.408	2137
64.416	2340
64.424	2524
64.432	2686
64.44	2822
64.448	2924.00000000014
64.456	2989
64.464	3024
64.472	3033
64.48	3017
64.488	2979
64.496	2924
64.504	2857
64.512	2781
64.52	2697
64.528	2608
64.536	2513
64.544	2413
64.552	2309
64.56	2201
64.568	2091
64.576	1979.9999999998
64.584	1870
64.592	1764
64.6	1663
64.608	1570
64.616	1487
64.624	1415
64.632	1353
64.64	1304
64.648	1269
64.656	1247
64.664	1236
64.672	1235
64.68	1244
64.688	1260
64.696	1281
64.704	1306.00000000004
64.712	1331
64.72	1356
64.728	1379
64.736	1400
64.744	1415
64.752	1427
64.76	1436
64.768	1439
64.776	1438
64.784	1433
64.792	1426
64.8	1415
64.808	1402
64.816	1388
64.824	1373
64.832	1355.99999999997
64.84	1338
64.848	1321
64.856	1304
64.864	1286
64.872	1269
64.88	1253
64.888	1238
64.896	1223
64.904	1209
64.912	1196
64.92	1184
64.928	1174
64.936	1164
64.944	1154
64.952	1146
64.96	1137.99999999998
64.968	1129
64.976	1122
64.984	1114
64.992	1106
65	1100
65.008	1095
65.016	1091
65.024	1087
65.032	1081
65.04	1074
65.048	1066
65.056	1058
65.064	1056
65.072	1062
65.08	1081
65.088	1124.0000000001
65.096	1200
65.104	1306
65.112	1440
65.12	1607
65.128	1800
65.136	2007
65.144	2218
65.152	2421
65.16	2602
65.168	2758
65.176	2888
65.184	2982
65.192	3038.00000000006
65.2	3064
65.208	3066
65.216	3041.99999999994
65.224	2996
65.232	2936
65.24	2867
65.248	2788
65.256	2700
65.264	2608
65.272	2513
65.28	2414
65.288	2310
65.296	2204
65.304	2095
65.312	1985
65.32	1876.99999999981
65.328	1772
65.336	1671
65.344	1577.99999999985
65.352	1496
65.36	1425
65.368	1365
65.376	1318
65.384	1284
65.392	1263
65.4	1253
65.408	1253
65.416	1262
65.424	1278
65.432	1300
65.44	1324
65.448	1348.00000000004
65.456	1371
65.464	1392
65.472	1410.00000000003
65.48	1424
65.488	1434
65.496	1440
65.504	1441
65.512	1439
65.52	1433
65.528	1424
65.536	1413
65.544	1400
65.552	1384
65.56	1367
65.568	1350
65.576	1331.99999999997
65.584	1315
65.592	1300
65.6	1284
65.608	1268
65.616	1252
65.624	1236
65.632	1221
65.64	1208
65.648	1196
65.656	1186
65.664	1177
65.672	1168
65.68	1158
65.688	1149
65.696	1141
65.704	1132.99999999999
65.712	1125
65.72	1117
65.728	1109
65.736	1101
65.744	1094
65.752	1086
65.76	1078
65.768	1070
65.776	1062
65.784	1054
65.792	1045
65.8	1041
65.808	1043
65.816	1056
65.824	1089
65.832	1155.00000000014
65.84	1251
65.848	1375
65.856	1533
65.864	1719
65.872	1923
65.88	2133
65.888	2339
65.896	2527
65.904	2692
65.912	2831
65.92	2936
65.928	3002
65.936	3038
65.944	3047
65.952	3030
65.96	2990.99999999992
65.968	2937
65.976	2872
65.984	2797
65.992	2714
66	2624
66.008	2531
66.016	2433
66.024	2330
66.032	2223
66.04	2115
66.048	2005
66.056	1895
66.064	1787.99999999981
66.072	1685
66.08	1590
66.088	1503.99999999986
66.096	1428
66.104	1363
66.112	1313
66.12	1277
66.128	1253
66.136	1239
66.144	1236
66.152	1243
66.16	1257
66.168	1275
66.176	1297
66.184	1321
66.192	1345.00000000004
66.2	1368
66.208	1387
66.216	1402.00000000002
66.224	1413
66.232	1422
66.24	1426
66.248	1424
66.256	1419
66.264	1412
66.272	1401
66.28	1388
66.288	1372
66.296	1355
66.304	1338
66.312	1320
66.32	1301.99999999997
66.328	1285
66.336	1268
66.344	1251.99999999997
66.352	1238
66.36	1225
66.368	1214
66.376	1202
66.384	1191
66.392	1181
66.4	1171
66.408	1161
66.416	1152
66.424	1143
66.432	1134
66.44	1125
66.448	1116.99999999999
66.456	1109
66.464	1100
66.472	1089.99999999998
66.48	1082
66.488	1075
66.496	1069
66.504	1062
66.512	1053
66.52	1044
66.528	1034
66.536	1027
66.544	1024
66.552	1029
66.56	1053
66.568	1107
66.576	1188.00000000016
66.584	1296
66.592	1440
66.6	1615
66.608	1812
66.616	2019
66.624	2226
66.632	2416
66.64	2589
66.648	2740
66.656	2857
66.664	2937
66.672	2985
66.68	3007
66.688	3001
66.696	2970
66.704	2919.9999999999
66.712	2858
66.72	2786
66.728	2704
66.736	2616
66.744	2525
66.752	2428
66.76	2324
66.768	2218
66.776	2110
66.784	1998
66.792	1886
66.8	1777
66.808	1673
66.816	1576
66.824	1489
66.832	1412.99999999987
66.84	1347
66.848	1294
66.856	1255
66.864	1228
66.872	1210
66.88	1205
66.888	1212
66.896	1226
66.904	1246
66.912	1270
66.92	1296
66.928	1323
66.936	1349
66.944	1371
66.952	1388
66.96	1401.00000000002
66.968	1412
66.976	1418
66.984	1419
66.992	1417
67	1412
67.008	1403
67.016	1392
67.024	1378
67.032	1363
67.04	1348
67.048	1332
67.056	1316
67.064	1299.99999999997
67.072	1284
67.08	1268
67.088	1251.99999999997
67.096	1237
67.104	1224
67.112	1210
67.12	1197
67.128	1187
67.136	1177
67.144	1167
67.152	1157
67.16	1148
67.168	1140
67.176	1131
67.184	1122
67.192	1113.99999999999
67.2	1107
67.208	1101
67.216	1094.99999999999
67.224	1088
67.232	1080
67.24	1072
67.248	1065
67.256	1058
67.264	1049
67.272	1043
67.28	1040
67.288	1046
67.296	1070
67.304	1121
67.312	1199
67.32	1304.00000000021
67.328	1443
67.336	1614
67.344	1805.00000000035
67.352	2007
67.36	2212
67.368	2404
67.376	2579
67.384	2733
67.392	2855
67.4	2939
67.408	2992
67.416	3019
67.424	3018
67.432	2990
67.44	2944
67.448	2885.99999999989
67.456	2815
67.464	2735
67.472	2647.99999999984
67.48	2556
67.488	2460
67.496	2357
67.504	2250
67.512	2141
67.52	2031
67.528	1921
67.536	1812
67.544	1706
67.552	1608
67.56	1520
67.568	1441
67.576	1372.99999999989
67.584	1318
67.592	1277
67.6	1249
67.608	1231
67.616	1225
67.624	1230
67.632	1243
67.64	1263
67.648	1287
67.656	1312
67.664	1337
67.672	1362
67.68	1383
67.688	1401
67.696	1416
67.704	1427.00000000002
67.712	1434
67.72	1435
67.728	1434
67.736	1430
67.744	1421
67.752	1410
67.76	1398
67.768	1384
67.776	1368
67.784	1350
67.792	1331
67.8	1314
67.808	1297
67.816	1280
67.824	1262
67.832	1246.99999999998
67.84	1235
67.848	1223
67.856	1211
67.864	1200
67.872	1190
67.88	1180
67.888	1170
67.896	1161
67.904	1153
67.912	1145
67.92	1138
67.928	1130
67.936	1122
67.944	1115
67.952	1109
67.96	1103.99999999999
67.968	1098
67.976	1090
67.984	1081
67.992	1073
68	1065
68.008	1060
68.016	1059
68.024	1069
68.032	1099
68.04	1159
68.048	1246
68.056	1359
68.064	1507.00000000029
68.072	1685
68.08	1882
68.088	2086.00000000036
68.096	2289
68.104	2477
68.112	2646
68.12	2791
68.128	2903
68.136	2977
68.144	3020
68.152	3038
68.16	3029
68.168	2996
68.176	2945
68.184	2882
68.192	2806.99999999986
68.2	2725
68.208	2638
68.216	2544.99999999983
68.224	2447
68.232	2344
68.24	2237
68.248	2128
68.256	2016
68.264	1905
68.272	1797
68.28	1693
68.288	1596
68.296	1509
68.304	1434
68.312	1368
68.32	1314.99999999992
68.328	1277
68.336	1251
68.344	1236.99999999999
68.352	1234
68.36	1241
68.368	1257
68.376	1278
68.384	1303
68.392	1330
68.4	1355
68.408	1380
68.416	1402
68.424	1419
68.432	1433
68.44	1443
68.448	1448
68.456	1447
68.464	1442
68.472	1434.99999999999
68.48	1425
68.488	1412
68.496	1399
68.504	1385
68.512	1369
68.52	1352
68.528	1334
68.536	1316
68.544	1298
68.552	1281
68.56	1265
68.568	1250
68.576	1234.99999999998
68.584	1222
68.592	1210
68.6	1198.99999999998
68.608	1189
68.616	1179
68.624	1170
68.632	1161
68.64	1153
68.648	1144
68.656	1135
68.664	1128
68.672	1119
68.68	1111
68.688	1105
68.696	1099
68.704	1091.99999999999
68.712	1084
68.72	1075
68.728	1066
68.736	1057
68.744	1053
68.752	1055
68.76	1067
68.768	1100
68.776	1165
68.784	1259
68.792	1380
68.8	1534
68.808	1717
68.816	1919
68.824	2127
68.832	2331.00000000035
68.84	2517
68.848	2682
68.856	2822
68.864	2929
68.872	2999
68.88	3038
68.888	3051
68.896	3037
68.904	2999
68.912	2945
68.92	2880
68.928	2804
68.936	2720
68.944	2630
68.952	2535
68.96	2435.99999999982
68.968	2332
68.976	2225
68.984	2117
68.992	2007
69	1897
69.008	1789
69.016	1685
69.024	1589
69.032	1505
69.04	1431
69.048	1368
69.056	1318
69.064	1280.99999999995
69.072	1257
69.08	1244
69.088	1242
69.096	1250
69.104	1265
69.112	1286
69.12	1309
69.128	1334
69.136	1358
69.144	1381
69.152	1402
69.16	1416
69.168	1426
69.176	1433
69.184	1437
69.192	1437
69.2	1433
69.208	1427
69.216	1417.99999999998
69.224	1405
69.232	1392
69.24	1377
69.248	1360
69.256	1341
69.264	1323
69.272	1306
69.28	1289
69.288	1273
69.296	1258
69.304	1243
69.312	1229
69.32	1215.99999999998
69.328	1203
69.336	1192
69.344	1180.99999999998
69.352	1171
69.36	1162
69.368	1153
69.376	1145
69.384	1137
69.392	1129
69.4	1121
69.408	1114
69.416	1107
69.424	1100
69.432	1092
69.44	1084
69.448	1074.99999999998
69.456	1066
69.464	1057
69.472	1048.99999999999
69.48	1045
69.488	1048
69.496	1062
69.504	1097
69.512	1166
69.52	1264
69.528	1388
69.536	1545
69.544	1730
69.552	1932
69.56	2140
69.568	2343
69.576	2527.00000000031
