Time	PPG1
0	1349
0.008	1471
0.016	1613
0.024	1768
0.032	1928
0.04	2081
0.048	2225
0.056	2354
0.064	2457
0.072	2531
0.08	2581
0.088	2611
0.096	2617
0.104	2602
0.112	2573
0.12	2536
0.128	2489
0.136	2434
0.144	2374
0.152	2311
0.16	2245
0.168	2174
0.176	2098
0.184	2021
0.192	1942
0.2	1861
0.208	1783
0.216	1707
0.224	1634
0.232	1567
0.24	1507
0.248	1455
0.256	1413
0.264	1381
0.272	1356
0.28	1337
0.288	1329
0.296	1330
0.304	1336
0.312	1345
0.32	1359
0.328	1377
0.336	1396
0.344	1415
0.352	1433
0.36	1449
0.368	1464
0.376	1475
0.384	1482
0.392	1484
0.4	1484
0.408	1483
0.416	1480
0.424	1473
0.432	1465
0.44	1457
0.448	1447
0.456	1435
0.464	1423
0.472	1411
0.48	1398
0.488	1384
0.496	1371
0.504	1359
0.512	1347
0.52	1336
0.528	1326
0.536	1317
0.544	1308
0.552	1298
0.56	1289
0.568	1280
0.576	1270
0.584	1261
0.592	1252
0.6	1242
0.608	1233
0.616	1225
0.624	1216
0.632	1207
0.64	1199
0.648	1190
0.656	1181
0.664	1172
0.672	1162
0.68	1156
0.688	1156
0.696	1164
0.704	1188
0.712	1238
0.72	1311
0.728	1405
0.736	1524
0.744	1665
0.752	1821
0.76	1980
0.768	2135
0.776	2278
0.784	2404
0.792	2512
0.8	2595
0.808	2649
0.816	2679
0.824	2691
0.832	2683
0.84	2657
0.848	2620
0.856	2575
0.864	2522
0.872	2460
0.88	2393
0.888	2325
0.896	2253
0.904	2176
0.912	2096
0.92	2016
0.928	1935
0.936	1855
0.944	1778
0.952	1705
0.96	1639
0.968	1581
0.976	1531
0.984	1489
0.992	1456
1	1431
1.008	1415
1.016	1407
1.024	1407
1.032	1414
1.04	1425
1.048	1441
1.056	1460
1.064	1478
1.072	1496
1.08	1513
1.088	1528
1.096	1540
1.104	1550
1.112	1557
1.12	1562
1.128	1563
1.136	1561
1.144	1557
1.152	1550
1.16	1540
1.168	1530
1.176	1520
1.184	1508
1.192	1494
1.2	1480
1.208	1466
1.216	1452
1.224	1438
1.232	1424
1.24	1411
1.248	1400
1.256	1389
1.264	1379
1.272	1370
1.28	1361
1.288	1352
1.296	1342
1.304	1333
1.312	1324
1.32	1314
1.328	1306
1.336	1298
1.344	1289
1.352	1280
1.36	1270
1.368	1260
1.376	1250
1.384	1240
1.392	1229
1.4	1219
1.408	1212
1.416	1213
1.424	1224
1.432	1248
1.44	1296
1.448	1375
1.456	1480
1.464	1606
1.472	1754
1.48	1915
1.488	2082
1.496	2245
1.504	2397
1.512	2528
1.52	2639
1.528	2730
1.536	2791
1.544	2824
1.552	2835
1.56	2829
1.568	2805
1.576	2766
1.584	2717
1.592	2662
1.6	2600
1.608	2532
1.616	2459
1.624	2383
1.632	2302
1.64	2216
1.648	2129
1.656	2043
1.664	1958
1.672	1876
1.68	1799
1.688	1728
1.696	1664
1.704	1611
1.712	1567
1.72	1529
1.728	1501
1.736	1484
1.744	1474
1.752	1472
1.76	1478
1.768	1490
1.776	1506
1.784	1524
1.792	1543
1.8	1562
1.808	1579
1.816	1594
1.824	1605
1.832	1613
1.84	1619
1.848	1623
1.856	1624
1.864	1622
1.872	1617
1.88	1610
1.888	1599
1.896	1586
1.904	1571
1.912	1557
1.92	1542
1.928	1525
1.936	1509
1.944	1493
1.952	1477
1.96	1462
1.968	1448
1.976	1435
1.984	1423
1.992	1411
2	1400
2.008	1389
2.016	1379
2.024	1369
2.032	1358
2.04	1346
2.048	1334
2.056	1322
2.064	1310
2.072	1299
2.08	1289
2.088	1279
2.096	1269
2.104	1258
2.112	1246
2.12	1235
2.128	1226
2.136	1220
2.144	1223
2.152	1244
2.16	1283
2.168	1344
2.176	1434
2.184	1557
2.192	1705
2.2	1870
2.208	2049
2.216	2229
2.224	2402
2.232	2561
2.24	2697
2.248	2803
2.256	2883
2.264	2939
2.272	2967
2.28	2968
2.288	2948
2.296	2914
2.304	2867
2.312	2809
2.32	2743
2.328	2673
2.336	2597
2.344	2515
2.352	2429
2.36	2339
2.368	2245
2.376	2150
2.384	2056
2.392	1964
2.4	1876
2.408	1795
2.416	1722
2.424	1656
2.432	1600
2.44	1556
2.448	1522
2.456	1496
2.464	1480
2.472	1475
2.48	1478
2.488	1487
2.496	1502
2.504	1519
2.512	1540
2.52	1561
2.528	1581
2.536	1598
2.544	1612
2.552	1623
2.56	1631
2.568	1635
2.576	1636
2.584	1634
2.592	1629
2.6	1622
2.608	1612
2.616	1600
2.624	1586
2.632	1571
2.64	1555
2.648	1537
2.656	1520
2.664	1503
2.672	1487
2.68	1472
2.688	1456
2.696	1441
2.704	1429
2.712	1417
2.72	1404
2.728	1391
2.736	1379
2.744	1368
2.752	1356
2.76	1343
2.768	1332
2.776	1321
2.784	1310
2.792	1298
2.8	1287
2.808	1277
2.816	1267
2.824	1256
2.832	1243
2.84	1231
2.848	1220
2.856	1214
2.864	1215
2.872	1228
2.88	1259
2.888	1319
2.896	1407
2.904	1520
2.912	1663
2.92	1832
2.928	2015
2.936	2203
2.944	2385
2.952	2549
2.96	2695
2.968	2819
2.976	2911
2.984	2969
2.992	3001
3	3012
3.008	2999
3.016	2966
3.024	2918
3.032	2861
3.04	2795
3.048	2721
3.056	2643
3.064	2561
3.072	2474
3.08	2382
3.088	2286
3.096	2189
3.104	2093
3.112	1999
3.12	1909
3.128	1823
3.136	1744
3.144	1676
3.152	1618
3.16	1568
3.168	1529
3.176	1503
3.184	1486
3.192	1476
3.2	1475
3.208	1482
3.216	1494
3.224	1510
3.232	1528
3.24	1547
3.248	1567
3.256	1586
3.264	1602
3.272	1614
3.28	1623
3.288	1630
3.296	1631
3.304	1628
3.312	1622
3.32	1614
3.328	1603
3.336	1590
3.344	1575
3.352	1560
3.36	1544
3.368	1528
3.376	1512
3.384	1495
3.392	1478
3.4	1461
3.408	1446
3.416	1431
3.424	1417
3.432	1404
3.44	1391
3.448	1379
3.456	1367
3.464	1355
3.472	1343
3.48	1331
3.488	1320
3.496	1309
3.504	1297
3.512	1285
3.52	1274
3.528	1261
3.536	1249
3.544	1238
3.552	1225
3.56	1212
3.568	1199
3.576	1190
3.584	1188
3.592	1202
3.6	1233
3.608	1284
3.616	1365
3.624	1482
3.632	1626
3.64	1791
3.648	1975
3.656	2164
3.664	2351
3.672	2529
3.68	2686
3.688	2811
3.696	2907
3.704	2978
3.712	3017
3.72	3026
3.728	3011
3.736	2979
3.744	2932
3.752	2872
3.76	2803
3.768	2730
3.776	2651
3.784	2565.99999999999
3.792	2475.99999999999
3.8	2383.99999999999
3.808	2287.99999999999
3.816	2187.99999999999
3.824	2087.99999999999
3.832	1989.99999999999
3.84	1896
3.848	1808
3.856	1726
3.864	1652
3.872	1589
3.88	1539
3.888	1499
3.896	1470
3.904	1451
3.912	1443
3.92	1445
3.928	1453
3.936	1465
3.944	1481
3.952	1501
3.96	1522
3.968	1542
3.976	1561
3.984	1579
3.992	1594
4	1604
4.008	1609
4.016	1611
4.024	1611
4.032	1607
4.04	1598
4.048	1586
4.056	1573
4.064	1559
4.072	1543
4.08	1525
4.088	1507
4.096	1490
4.104	1473
4.112	1457
4.12	1441
4.128	1426
4.136	1410
4.144	1394
4.152	1380
4.16	1366
4.168	1352
4.176	1339
4.184	1327
4.192	1316
4.2	1304
4.208	1291
4.216	1280
4.224	1269
4.232	1258
4.24	1247
4.248	1237
4.256	1227
4.264	1216
4.272	1203
4.28	1191
4.288	1180
4.296	1173
4.304	1174
4.312	1186
4.32	1219
4.328	1284
4.336	1376
4.344	1495
4.352	1646
4.36	1822
4.368	2014
4.376	2212
4.384	2407
4.392	2585
4.4	2742
4.408	2875
4.416	2976
4.424	3040
4.432	3076
4.44	3087
4.448	3072
4.456	3035
4.464	2984
4.472	2922
4.48	2850
4.488	2770
4.496	2686
4.504	2598.99999999999
4.512	2507.99999999999
4.52	2410.99999999999
4.528	2310.99999999999
4.536	2209.99999999999
4.544	2107.99999999999
4.552	2006.99999999999
4.56	1909.99999999999
4.568	1818.99999999999
4.576	1736.99999999999
4.584	1664.99999999999
4.592	1602.99999999999
4.6	1550.99999999999
4.608	1509
4.616	1479
4.624	1460
4.632	1450
4.64	1451
4.648	1461
4.656	1477
4.664	1498
4.672	1521
4.68	1544
4.688	1565
4.696	1586
4.704	1604
4.712	1617
4.72	1627
4.728	1634
4.736	1637
4.744	1637
4.752	1633
4.76	1626
4.768	1615
4.776	1601
4.784	1585
4.792	1569
4.8	1553
4.808	1536
4.816	1517
4.824	1500
4.832	1484
4.84	1467
4.848	1451
4.856	1436
4.864	1420
4.872	1405
4.88	1392
4.888	1379
4.896	1366
4.904	1352
4.912	1339
4.92	1328
4.928	1317
4.936	1306
4.944	1294
4.952	1282
4.96	1270
4.968	1259
4.976	1249
4.984	1237
4.992	1224
5	1212
5.008	1203
5.016	1200
5.024	1207
5.032	1236
5.04	1286
5.048	1359
5.056	1466
5.064	1609
5.072	1778
5.08	1962
5.088	2159
5.096	2355
5.104	2543
5.112	2715
5.12	2859
5.128	2968
5.136	3047
5.144	3100
5.152	3120
5.16	3110
5.168	3078
5.176	3032
5.184	2973
5.192	2903
5.2	2826
5.208	2743
5.216	2655
5.224	2562
5.232	2463
5.24	2361
5.248	2257
5.256	2152
5.264	2047
5.272	1946
5.28	1850
5.288	1762
5.296	1682
5.304	1612
5.312	1553
5.32	1508
5.328	1474
5.336	1449
5.344	1437
5.352	1436
5.36	1441
5.368	1452
5.376	1468
5.384	1488
5.392	1511
5.4	1534
5.408	1554
5.416	1572
5.424	1587
5.432	1600
5.44	1608
5.448	1610
5.456	1608
5.464	1603
5.472	1596
5.48	1585
5.488	1572
5.496	1557
5.504	1541
5.512	1524
5.52	1506
5.528	1488
5.536	1469
5.544	1450
5.552	1431
5.56	1415
5.568	1400
5.576	1383
5.584	1367
5.592	1353
5.6	1340
5.608	1327
5.616	1314
5.624	1301
5.632	1289
5.64	1275
5.648	1261
5.656	1249
5.664	1238
5.672	1225
5.68	1212
5.688	1200
5.696	1189
5.704	1178
5.712	1166
5.72	1156
5.728	1151
5.736	1159
5.744	1181
5.752	1220
5.76	1287
5.768	1392
5.776	1527
5.784	1685
5.792	1867
5.8	2063
5.808	2262
5.816	2454
5.824	2629
5.832	2777
5.84	2897
5.848	2989
5.856	3047
5.864	3070
5.872	3066
5.88	3042
5.888	2997
5.896	2937
5.904	2867
5.912	2791
5.92	2708
5.928	2617
5.936	2522
5.944	2423
5.952	2321
5.96	2214
5.968	2105
5.976	1999
5.984	1894
5.992	1794
6	1703
6.008	1620
6.016	1546
6.024	1487
6.032	1441
6.04	1405
6.048	1381
6.056	1369
6.064	1367
6.072	1372
6.08	1384
6.088	1401
6.096	1422
6.104	1444
6.112	1466
6.12	1487
6.128	1506
6.136	1521
6.144	1532
6.152	1538
6.16	1541
6.168	1540
6.176	1535
6.184	1528
6.192	1517
6.2	1506
6.208	1492
6.216	1475
6.224	1457
6.232	1438
6.24	1418
6.248	1398
6.256	1378
6.264	1358
6.272	1340
6.28	1324
6.288	1308
6.296	1293
6.304	1279
6.312	1265
6.32	1252
6.328	1239
6.336	1226
6.344	1212
6.352	1200
6.36	1189
6.368	1178
6.376	1166
6.384	1155
6.392	1145
6.4	1128
6.408	1116
6.416	1105
6.424	1087
6.432	1086
6.44	1095
6.448	1176
6.456	1261
6.464	1374
6.472	1684
6.48	1872
6.488	2070
6.496	2366
6.504	2540.00000000002
6.512	2692.00000000002
6.52	2820.00000000001
6.528	2914.00000000001
6.536	2970
6.544	2997
6.552	3001
6.56	2980
6.568	2936.99999999999
6.576	2879.99999999999
6.584	2813.99999999999
6.592	2737.99999999999
6.6	2652.99999999999
6.608	2562.99999999999
6.616	2468.99999999999
6.624	2369.99999999999
6.632	2264.99999999999
6.64	2156.99999999999
6.648	2047.99999999999
6.656	1939.99999999999
6.664	1836
6.672	1736
6.68	1642
6.688	1558
6.696	1487
6.704	1427
6.712	1377
6.72	1341
6.728	1319
6.736	1308
6.744	1304
6.752	1308
6.76	1321
6.768	1341
6.776	1364
6.784	1388
6.792	1411
6.8	1435
6.808	1458
6.816	1476
6.824	1489
6.832	1498
6.84	1503
6.848	1505
6.856	1503
6.864	1498
6.872	1489
6.88	1478
6.888	1464
6.896	1447
6.904	1430
6.912	1412
6.92	1393
6.928	1375
6.936	1357
6.944	1339
6.952	1322
6.96	1306
6.968	1291
6.976	1277
6.984	1265
6.992	1253
7	1240
7.008	1228
7.016	1216
7.024	1204
7.032	1192
7.04	1179
7.048	1168
7.056	1157
7.064	1147
7.072	1137
7.08	1126
7.088	1114
7.096	1102
7.104	1090
7.112	1079
7.12	1072
7.128	1072
7.136	1085
7.144	1123
7.152	1185
7.16	1272
7.168	1393
7.176	1549
7.184	1730
7.192	1925
7.2	2130
7.208	2329
7.216	2516
7.224	2683
7.232	2820
7.24	2919
7.248	2987
7.256	3027
7.264	3036
7.272	3016
7.28	2976
7.288	2923
7.296	2857
7.304	2779
7.312	2694
7.32	2604
7.328	2507
7.336	2405
7.344	2300
7.352	2192
7.36	2081
7.368	1970
7.376	1861
7.384	1758
7.392	1662
7.4	1575
7.408	1498
7.416	1431
7.424	1378
7.432	1338
7.44	1309
7.448	1291
7.456	1284
7.464	1286
7.472	1297
7.48	1316
7.488	1339
7.496	1364
7.504	1388
7.512	1412
7.52	1434
7.528	1451
7.536	1466
7.544	1478
7.552	1485
7.56	1486
7.568	1482
7.576	1477
7.584	1469
7.592	1457
7.6	1444
7.608	1430
7.616	1413
7.624	1394
7.632	1375
7.64	1357
7.648	1338
7.656	1319
7.664	1301
7.672	1285
7.68	1271
7.688	1255
7.696	1240
7.704	1227
7.712	1215
7.72	1203
7.728	1191
7.736	1179
7.744	1167
7.752	1155
7.76	1142
7.768	1128
7.776	1116
7.784	1105
7.792	1093
7.8	1080
7.808	1066
7.816	1053
7.824	1043
7.832	1038
7.84	1042
7.848	1067
7.856	1114
7.864	1183
7.872	1286
7.88	1424
7.888	1591
7.896	1778
7.904	1978
7.912	2178
7.92	2371
7.928	2550
7.936	2702
7.944	2818
7.952	2902
7.96	2959
7.968	2984
7.976	2976
7.984	2946
7.992	2901
8	2841
8.008	2767.99999999998
8.016	2686
8.024	2599.99999999998
8.032	2509
8.04	2410.99999999998
8.048	2308
8.056	2202.99999999998
8.064	2096
8.072	1986.99999999998
8.08	1880
8.088	1775.99999999998
8.096	1678
8.104	1588.99999999998
8.112	1509
8.12	1436.99999999999
8.128	1376
8.136	1327.99999999999
8.144	1291
8.152	1264
8.16	1249
8.168	1246
8.176	1252
8.184	1265
8.192	1283
8.2	1304
8.208	1327
8.216	1351
8.224	1373
8.232	1392
8.24	1408
8.248	1421
8.256	1430
8.264	1434
8.272	1433
8.28	1429
8.288	1422
8.296	1411
8.304	1398
8.312	1383
8.32	1368
8.328	1351
8.336	1334
8.344	1316
8.352	1298
8.36	1281
8.368	1265
8.376	1249
8.384	1233
8.392	1217
8.4	1201
8.408	1187
8.416	1173
8.424	1159
8.432	1146
8.44	1133
8.448	1122
8.456	1109
8.464	1097
8.472	1087
8.48	1076
8.488	1063
8.496	1052
8.504	1041
8.512	1029
8.52	1016
8.528	1003
8.536	995
8.544	996
8.552	1013
8.56	1049
8.568	1107
8.576	1197
8.584	1324
8.592	1479
8.6	1654
8.608	1847
8.616	2047
8.624	2243
8.632	2425
8.64	2583
8.648	2709
8.656	2804
8.664	2870
8.672	2903
8.68	2903
8.688	2879
8.696	2839
8.704	2784
8.712	2716
8.72	2640
8.728	2559
8.736	2472
8.744	2378
8.752	2281
8.76	2182
8.768	2078
8.776	1972
8.784	1866
8.792	1763
8.8	1665
8.808	1574
8.816	1491
8.824	1417
8.832	1353
8.84	1302
8.848	1263
8.856	1234
8.864	1215
8.872	1209
8.88	1212
8.888	1222
8.896	1239
8.904	1260
8.912	1282
8.92	1305
8.928	1329
8.936	1351
8.944	1369
8.952	1384
8.96	1395
8.968	1402
8.976	1404
8.984	1403
8.992	1399
9	1391
9.008	1380
9.016	1366
9.024	1351
9.032	1336
9.04	1320
9.048	1303
9.056	1286
9.064	1269
9.072	1252
9.08	1235
9.088	1221
9.096	1207
9.104	1193
9.112	1179
9.12	1166
9.128	1153
9.136	1140
9.144	1127
9.152	1114
9.16	1100
9.168	1088
9.176	1077
9.184	1066
9.192	1055
9.2	1044
9.208	1032
9.216	1021
9.224	1010
9.232	998
9.24	989
9.248	986
9.256	996
9.264	1022
9.272	1069
9.28	1148
9.288	1263
9.296	1409
9.304	1576
9.312	1763
9.32	1959
9.328	2154
9.336	2340
9.344	2505
9.352	2637
9.36	2740
9.368	2816
9.376	2859
9.384	2870
9.392	2855
9.4	2822
9.408	2771
9.416	2707
9.424	2634
9.432	2555
9.44	2471
9.448	2381
9.456	2286
9.464	2188
9.472	2088
9.48	1986
9.488	1884
9.496	1784
9.504	1688
9.512	1599
9.52	1516
9.528	1439
9.536	1374
9.544	1321
9.552	1279
9.56	1247
9.568	1227
9.576	1217
9.584	1216
9.592	1222
9.6	1235
9.608	1254
9.616	1276
9.624	1300
9.632	1324
9.64	1346
9.648	1365
9.656	1382
9.664	1395
9.672	1404
9.68	1408
9.688	1408
9.696	1404
9.704	1398
9.712	1389
9.72	1378
9.728	1365
9.736	1351
9.744	1337
9.752	1322
9.76	1306
9.768	1291
9.776	1276
9.784	1261
9.792	1247
9.8	1232
9.808	1217
9.816	1203
9.824	1190
9.832	1178
9.84	1166
9.848	1155
9.856	1145
9.864	1133
9.872	1121
9.88	1109
9.888	1096
9.896	1084
9.904	1073
9.912	1062
9.92	1050
9.928	1038
9.936	1026
9.944	1015
9.952	1011
9.96	1023
9.968	1051
9.976	1098
9.984	1176
9.992	1290
10	1432
10.008	1596.00000000004
10.016	1780
10.024	1973.00000000004
10.032	2166
10.04	2348.00000000004
10.048	2509
10.056	2640.00000000003
10.064	2742
10.072	2817.00000000001
10.08	2859
10.088	2868
10.096	2853
10.104	2821.99999999999
10.112	2773
10.12	2710.99999999999
10.128	2640
10.136	2561.99999999998
10.144	2479
10.152	2390.99999999998
10.16	2299
10.168	2203.99999999998
10.176	2105
10.184	2004.99999999998
10.192	1905
10.2	1806.99999999998
10.208	1712
10.216	1621.99999999998
10.224	1538
10.232	1461.99999999998
10.24	1397
10.248	1345
10.256	1303
10.264	1270
10.272	1248
10.28	1239
10.288	1241
10.296	1249
10.304	1264
10.312	1284
10.32	1307
10.328	1332
10.336	1356
10.344	1378
10.352	1397
10.36	1414
10.368	1427
10.376	1436
10.384	1440
10.392	1442
10.4	1441
10.408	1437
10.416	1431
10.424	1422
10.432	1410
10.44	1397
10.448	1382
10.456	1365
10.464	1350
10.472	1334
10.48	1318
10.488	1303
10.496	1288
10.504	1273
10.512	1260
10.52	1247
10.528	1235
10.536	1223
10.544	1211
10.552	1199
10.56	1186
10.568	1172
10.576	1159
10.584	1147
10.592	1135
10.6	1124
10.608	1113
10.616	1102
10.624	1090
10.632	1078
10.64	1067
10.648	1059
10.656	1057
10.664	1070
10.672	1098
10.68	1146
10.688	1225
10.696	1341
10.704	1486
10.712	1653
10.72	1841
10.728	2037
10.736	2232
10.744	2416
10.752	2579
10.76	2710
10.768	2812
10.776	2887
10.784	2929
10.792	2939
10.8	2925
10.808	2894
10.816	2846
10.824	2784
10.832	2713
10.84	2637
10.848	2555
10.856	2467
10.864	2375
10.872	2281
10.88	2183
10.888	2083
10.896	1982
10.904	1881
10.912	1785
10.92	1696
10.928	1613
10.936	1538
10.944	1474
10.952	1422
10.96	1380
10.968	1348
10.976	1327
10.984	1319
10.992	1320
11	1326
11.008	1340
11.016	1360
11.024	1383.00000000001
11.032	1408
11.04	1432.00000000001
11.048	1454
11.056	1473
11.064	1489
11.072	1500
11.08	1506
11.088	1509
11.096	1509
11.104	1506
11.112	1499
11.12	1490
11.128	1479
11.136	1466
11.144	1450
11.152	1433
11.16	1417
11.168	1401
11.176	1385
11.184	1369
11.192	1353
11.2	1337
11.208	1321
11.216	1306
11.224	1292
11.232	1278
11.24	1265
11.248	1253
11.256	1240
11.264	1228
11.272	1216
11.28	1204
11.288	1192
11.296	1180
11.304	1169
11.312	1158
11.32	1147
11.328	1136
11.336	1123
11.344	1111
11.352	1101
11.36	1097
11.368	1109
11.376	1138
11.384	1186
11.392	1265
11.4	1380
11.408	1523
11.416	1688
11.424	1872
11.432	2064
11.44	2255
11.448	2437
11.456	2598
11.464	2726
11.472	2824
11.48	2895
11.488	2935
11.496	2943
11.504	2927
11.512	2895
11.52	2846
11.528	2783
11.536	2712
11.544	2634
11.552	2551
11.56	2463
11.568	2370
11.576	2274
11.584	2175
11.592	2074
11.6	1973
11.608	1875
11.616	1779
11.624	1688
11.632	1605
11.64	1531
11.648	1467
11.656	1416
11.664	1375
11.672	1345
11.68	1326
11.688	1318
11.696	1320
11.704	1329
11.712	1346
11.72	1367
11.728	1391
11.736	1417
11.744	1442
11.752	1463
11.76	1482
11.768	1498
11.776	1510
11.784	1516
11.792	1518
11.8	1518
11.808	1515
11.816	1509
11.824	1500
11.832	1489
11.84	1476
11.848	1459
11.856	1442
11.864	1424
11.872	1406
11.88	1389
11.888	1373
11.896	1357
11.904	1342
11.912	1327
11.92	1312
11.928	1297
11.936	1282
11.944	1266
11.952	1252
11.96	1238
11.968	1224
11.976	1210
11.984	1197
11.992	1186
12	1174
12.008	1162
12.016	1151
12.024	1142
12.032	1131
12.04	1120
12.048	1110
12.056	1103
12.064	1103
12.072	1119
12.08	1152
12.088	1205.00000000001
12.096	1290
12.104	1409.00000000003
12.112	1557
12.12	1725.00000000004
12.128	1911
12.136	2104.00000000004
12.144	2295
12.152	2475.00000000004
12.16	2632
12.168	2757.00000000002
12.176	2853
12.184	2921.00000000001
12.192	2955
12.2	2957
12.208	2936
12.216	2897.99999999999
12.224	2844
12.232	2775.99999999998
12.24	2700
12.248	2618.99999999998
12.256	2533
12.264	2440.99999999998
12.272	2345
12.28	2246.99999999998
12.288	2146
12.296	2043
12.304	1941
12.312	1841
12.32	1745
12.328	1656
12.336	1574
12.344	1502
12.352	1441
12.36	1392
12.368	1354
12.376	1326
12.384	1309
12.392	1304
12.4	1308
12.408	1319
12.416	1336
12.424	1356
12.432	1379
12.44	1404
12.448	1428
12.456	1450
12.464	1469
12.472	1485
12.48	1496
12.488	1502
12.496	1504
12.504	1503
12.512	1499
12.52	1491
12.528	1482
12.536	1470
12.544	1456
12.552	1442
12.56	1427
12.568	1411
12.576	1395
12.584	1380
12.592	1364
12.6	1348
12.608	1332
12.616	1317
12.624	1303
12.632	1289
12.64	1277
12.648	1265
12.656	1252
12.664	1239
12.672	1227
12.68	1216
12.688	1205
12.696	1195
12.704	1185
12.712	1174
12.72	1164
12.728	1155
12.736	1145
12.744	1134
12.752	1123
12.76	1116
12.768	1115
12.776	1130
12.784	1161
12.792	1214
12.8	1299
12.808	1421
12.816	1571
12.824	1742
12.832	1932
12.84	2129
12.848	2325
12.856	2510
12.864	2672
12.872	2802
12.88	2902
12.888	2975
12.896	3016
12.904	3023
12.912	3007
12.92	2974
12.928	2922
12.936	2855
12.944	2779
12.952	2698
12.96	2611
12.968	2517
12.976	2419
12.984	2319
12.992	2215
13	2108
13.008	2000.99999999998
13.016	1898
13.024	1797.99999999998
13.032	1705
13.04	1620.99999999998
13.048	1547
13.056	1483.99999999999
13.064	1433
13.072	1394.99999999999
13.08	1367
13.088	1350
13.096	1344
13.104	1348
13.112	1360
13.12	1378
13.128	1399
13.136	1423.00000000001
13.144	1449
13.152	1476.00000000001
13.16	1499
13.168	1518
13.176	1534
13.184	1546
13.192	1552
13.2	1554
13.208	1554
13.216	1550
13.224	1542
13.232	1533
13.24	1523
13.248	1509
13.256	1492
13.264	1474
13.272	1458
13.28	1442
13.288	1425
13.296	1409
13.304	1393
13.312	1378
13.32	1363
13.328	1349
13.336	1335
13.344	1321
13.352	1307
13.36	1293
13.368	1280
13.376	1268
13.384	1257
13.392	1246
13.4	1234
13.408	1223
13.416	1212
13.424	1199
13.432	1187
13.44	1174
13.448	1161
13.456	1151
13.464	1144
13.472	1144
13.48	1163
13.488	1203
13.496	1265
13.504	1360
13.512	1492
13.52	1653
13.528	1836
13.536	2036
13.544	2239
13.552	2439
13.56	2628
13.568	2792
13.576	2921
13.584	3020
13.592	3090
13.6	3126
13.608	3129
13.616	3107
13.624	3067
13.632	3011
13.64	2941
13.648	2862
13.656	2776
13.664	2684
13.672	2586
13.68	2483
13.688	2379
13.696	2272
13.704	2162
13.712	2052
13.72	1945
13.728	1844
13.736	1751
13.744	1667
13.752	1592
13.76	1528
13.768	1477
13.776	1438
13.784	1409
13.792	1392
13.8	1385
13.808	1388
13.816	1398
13.824	1415
13.832	1436
13.84	1458
13.848	1481
13.856	1504
13.864	1524
13.872	1542
13.88	1557
13.888	1567
13.896	1572
13.904	1574
13.912	1573
13.92	1568
13.928	1558
13.936	1546
13.944	1533
13.952	1518
13.96	1500
13.968	1482
13.976	1464
13.984	1446
13.992	1427
14	1408
14.008	1391
14.016	1376
14.024	1360
14.032	1344
14.04	1329
14.048	1315
14.056	1301
14.064	1288
14.072	1275
14.08	1263
14.088	1250
14.096	1236
14.104	1224
14.112	1213
14.12	1202
14.128	1190
14.136	1177
14.144	1164
14.152	1151
14.16	1140
14.168	1132
14.176	1133
14.184	1155.00000000001
14.192	1197
14.2	1261.00000000002
14.208	1359
14.216	1495.00000000003
14.224	1661
14.232	1848.00000000004
14.24	2052
14.248	2260.00000000005
14.256	2462
14.264	2649.00000000004
14.272	2811
14.28	2937.00000000002
14.288	3031
14.296	3097.00000000001
14.304	3129
14.312	3128
14.32	3103
14.328	3062.99999999999
14.336	3006
14.344	2935
14.352	2856
14.36	2771
14.368	2680
14.376	2581
14.384	2479
14.392	2374
14.4	2264
14.408	2152
14.416	2041
14.424	1934
14.432	1832
14.44	1738
14.448	1652
14.456	1575
14.464	1509
14.472	1456
14.48	1415
14.488	1384
14.496	1364
14.504	1357
14.512	1360
14.52	1370
14.528	1386
14.536	1406
14.544	1429
14.552	1452
14.56	1474
14.568	1494
14.576	1510
14.584	1523
14.592	1533
14.6	1537
14.608	1537
14.616	1535
14.624	1528
14.632	1516
14.64	1503
14.648	1490
14.656	1474
14.664	1456
14.672	1438
14.68	1420
14.688	1402
14.696	1384
14.704	1366
14.712	1349
14.72	1333
14.728	1318
14.736	1303
14.744	1288
14.752	1273
14.76	1259
14.768	1244
14.776	1229
14.784	1217
14.792	1205
14.8	1192
14.808	1180
14.816	1169
14.824	1157
14.832	1145
14.84	1133
14.848	1120
14.856	1107
14.864	1095
14.872	1087
14.88	1089
14.888	1113
14.896	1159
14.904	1227
14.912	1330
14.92	1472
14.928	1644
14.936	1836
14.944	2042
14.952	2248
14.96	2449
14.968	2636
14.976	2795
14.984	2918
14.992	3007
15	3067
15.008	3092
15.016	3085
15.024	3055.99999999999
15.032	3010
15.04	2947.99999999998
15.048	2873
15.056	2791.99999999998
15.064	2706
15.072	2613.99999999998
15.08	2515
15.088	2411.99999999998
15.096	2306
15.104	2196.99999999998
15.112	2087
15.12	1977.99999999998
15.128	1872
15.136	1770.99999999998
15.144	1678
15.152	1591.99999999998
15.16	1516
15.168	1451.99999999999
15.176	1401
15.184	1361.99999999999
15.192	1332
15.2	1315
15.208	1311
15.216	1315
15.224	1326
15.232	1343
15.24	1364
15.248	1387.00000000001
15.256	1411
15.264	1434
15.272	1454
15.28	1470
15.288	1482
15.296	1490
15.304	1494
15.312	1494
15.32	1490
15.328	1483
15.336	1475
15.344	1464
15.352	1451
15.36	1437
15.368	1420
15.376	1402
15.384	1384
15.392	1365
15.4	1347
15.408	1329
15.416	1311
15.424	1294
15.432	1277
15.44	1262
15.448	1247
15.456	1233
15.464	1219
15.472	1205
15.48	1192
15.488	1179
15.496	1167
15.504	1156
15.512	1145
15.52	1135
15.528	1124
15.536	1111
15.544	1099
15.552	1086
15.56	1073
15.568	1063
15.576	1058
15.584	1065
15.592	1096
15.6	1151
15.608	1233
15.616	1349
15.624	1502
15.632	1682
15.64	1879
15.648	2088
15.656	2294
15.664	2490
15.672	2667
15.68	2815
15.688	2925
15.696	3002
15.704	3050
15.712	3065
15.72	3050
15.728	3013
15.736	2962
15.744	2895
15.752	2817
15.76	2732
15.768	2643
15.776	2550
15.784	2449
15.792	2345
15.8	2239
15.808	2130
15.816	2020
15.824	1911
15.832	1806
15.84	1707
15.848	1617
15.856	1535
15.864	1463
15.872	1403
15.88	1355
15.888	1319
15.896	1295
15.904	1283
15.912	1282
15.92	1288
15.928	1300
15.936	1318
15.944	1340
15.952	1364
15.96	1388
15.968	1410
15.976	1428
15.984	1443
15.992	1455
16	1462
16.008	1465
16.016	1466
16.024	1463
16.032	1457
16.04	1448
16.048	1436.99999999999
16.056	1425
16.064	1411
16.072	1394
16.08	1375.99999999999
16.088	1359
16.096	1341
16.104	1323
16.112	1305.99999999999
16.12	1289
16.128	1273
16.136	1257
16.144	1241.99999999999
16.152	1228
16.16	1215
16.168	1202
16.176	1188.99999999999
16.184	1177
16.192	1164
16.2	1151
16.208	1138.99999999999
16.216	1127
16.224	1116
16.232	1104
16.24	1090.99999999999
16.248	1079
16.256	1067
16.264	1056
16.272	1047
16.28	1046
16.288	1058
16.296	1094
16.304	1155.00000000003
16.312	1243
16.32	1366
16.328	1524
16.336	1708.00000000009
16.344	1908
16.352	2117
16.36	2321
16.368	2513.00000000008
16.376	2684
16.384	2822
16.392	2922
16.4	2990
16.408	3031
16.416	3041
16.424	3022
16.432	2982
16.44	2928
16.448	2861
16.456	2785
16.464	2703
16.472	2616
16.48	2522
16.488	2422
16.496	2319
16.504	2215
16.512	2108
16.52	2000
16.528	1895
16.536	1794
16.544	1698
16.552	1611
16.56	1534
16.568	1466
16.576	1410
16.584	1368
16.592	1336
16.6	1314
16.608	1304
16.616	1303
16.624	1310
16.632	1323
16.64	1352
16.648	1375
16.656	1399
16.664	1443
16.672	1459
16.68	1473
16.688	1489
16.696	1491
16.704	1490
16.712	1478
16.72	1468
16.728	1457
16.736	1438
16.744	1422
16.752	1405
16.76	1389
16.768	1372
16.776	1354
16.784	1337
16.792	1321
16.8	1305
16.808	1290
16.816	1275
16.824	1261
16.832	1248
16.84	1235
16.848	1223
16.856	1211
16.864	1199
16.872	1187
16.88	1175
16.888	1163
16.896	1151
16.904	1139
16.912	1127
16.92	1115
16.928	1104
16.936	1095
16.944	1089
16.952	1091
16.96	1111
16.968	1159
16.976	1233
16.984	1333
16.992	1468
17	1637
17.008	1828
17.016	2029.00000000009
17.024	2235
17.032	2430
17.04	2608
17.048	2764.00000000006
17.056	2888
17.064	2973
17.072	3027
17.08	3054
17.088	3051
17.096	3023
17.104	2977
17.112	2918.99999999997
17.12	2849
17.128	2770
17.136	2685
17.144	2595.99999999996
17.152	2501
17.16	2401
17.168	2296
17.176	2188.99999999995
17.184	2083
17.192	1977
17.2	1873
17.208	1774.99999999996
17.216	1683
17.224	1601
17.232	1529
17.24	1464.99999999997
17.248	1413
17.256	1375
17.264	1348
17.272	1329.99999999999
17.28	1322
17.288	1323
17.296	1333
17.304	1349.00000000001
17.312	1369
17.32	1390
17.328	1411
17.336	1434.00000000001
17.344	1454
17.352	1470
17.36	1483
17.368	1493
17.376	1498
17.384	1498
17.392	1495
17.4	1490
17.408	1481
17.416	1470
17.424	1457
17.432	1443
17.44	1427
17.448	1410
17.456	1393
17.464	1377
17.472	1361
17.48	1345
17.488	1329
17.496	1313
17.504	1298
17.512	1283
17.52	1270
17.528	1257
17.536	1244
17.544	1231
17.552	1219
17.56	1207
17.568	1196
17.576	1185
17.584	1174
17.592	1162
17.6	1150
17.608	1138
17.616	1126
17.624	1113
17.632	1101
17.64	1091
17.648	1084
17.656	1084
17.664	1099
17.672	1143
17.68	1213
17.688	1309
17.696	1441
17.704	1606
17.712	1794
17.72	1996
17.728	2202
17.736	2397
17.744	2578
17.752	2737
17.76	2865
17.768	2955
17.776	3012
17.784	3041
17.792	3041
17.8	3016
17.808	2972
17.816	2914
17.824	2844
17.832	2765
17.84	2680
17.848	2589
17.856	2493
17.864	2392
17.872	2288
17.88	2183
17.888	2077
17.896	1971
17.904	1865
17.912	1762
17.92	1666
17.928	1580
17.936	1502
17.944	1434
17.952	1380
17.96	1339
17.968	1310
17.976	1291
17.984	1284
17.992	1287
18	1298
18.008	1314
18.016	1336.00000000001
18.024	1360
18.032	1386
18.04	1412
18.048	1434.00000000001
18.056	1452
18.064	1466
18.072	1476
18.08	1482
18.088	1483
18.096	1481
18.104	1477
18.112	1469
18.12	1457
18.128	1444
18.136	1429
18.144	1412.99999999999
18.152	1397
18.16	1381
18.168	1364
18.176	1345.99999999999
18.184	1329
18.192	1313
18.2	1297
18.208	1281.99999999999
18.216	1267
18.224	1253
18.232	1239
18.24	1224.99999999999
18.248	1211
18.256	1197
18.264	1183
18.272	1168.99999999999
18.28	1156
18.288	1143
18.296	1132
18.304	1122
18.312	1111
18.32	1099
18.328	1087
18.336	1075
18.344	1065
18.352	1059
18.36	1060
18.368	1074.00000000001
18.376	1114
18.384	1179
18.392	1270
18.4	1394.00000000006
18.408	1552
18.416	1734
18.424	1929
18.432	2132.00000000009
18.44	2326
18.448	2505
18.456	2665
18.464	2795
18.472	2887
18.48	2948
18.488	2982
18.496	2986
18.504	2964
18.512	2922
18.52	2867
18.528	2801
18.536	2724
18.544	2640
18.552	2551
18.56	2457
18.568	2357
18.576	2253
18.584	2149
18.592	2043
18.6	1936
18.608	1831
18.616	1732
18.624	1638
18.632	1553
18.64	1479
18.648	1414
18.656	1361
18.664	1322
18.672	1294
18.68	1277
18.688	1271
18.696	1275
18.704	1286
18.712	1302
18.72	1323
18.728	1347
18.736	1372
18.744	1396
18.752	1419
18.76	1439
18.768	1454
18.776	1465
18.784	1473
18.792	1476
18.8	1475
18.808	1472
18.816	1465
18.824	1455
18.832	1442
18.84	1427
18.848	1413
18.856	1398
18.864	1381
18.872	1365
18.88	1349
18.888	1332
18.896	1315
18.904	1301
18.912	1287
18.92	1273
18.928	1260
18.936	1246
18.944	1233
18.952	1221
18.96	1208
18.968	1194
18.976	1181
18.984	1171
18.992	1162
19	1153
19.008	1144
19.016	1134
19.024	1124
19.032	1113
19.04	1101
19.048	1090
19.056	1082
19.064	1082
19.072	1099
19.08	1142.00000000002
19.088	1208
19.096	1300
19.104	1427
19.112	1589.00000000008
19.12	1774
19.128	1971
19.136	2175
19.144	2371.00000000008
19.152	2552
19.16	2712
19.168	2842
19.176	2934.00000000003
19.184	2995
19.192	3030
19.2	3034
19.208	3010.99999999999
19.216	2969
19.224	2914
19.232	2845
19.24	2764.99999999996
19.248	2679
19.256	2590
19.264	2495
19.272	2394.99999999995
19.28	2292
19.288	2186
19.296	2078
19.304	1969.99999999995
19.312	1863
19.32	1761
19.328	1667
19.336	1582.99999999996
19.344	1508
19.352	1443
19.36	1392
19.368	1352.99999999999
19.376	1325
19.384	1307
19.392	1300
19.4	1303
19.408	1315
19.416	1332
19.424	1353
19.432	1377.00000000001
19.44	1401
19.448	1424
19.456	1445
19.464	1463
19.472	1477
19.48	1489
19.488	1496
19.496	1497
19.504	1495
19.512	1491
19.52	1485
19.528	1475
19.536	1463
19.544	1450
19.552	1434
19.56	1417
19.568	1401
19.576	1384
19.584	1366
19.592	1349
19.6	1333
19.608	1318
19.616	1303
19.624	1288
19.632	1274
19.64	1262
19.648	1250
19.656	1238
19.664	1226
19.672	1214
19.68	1201
19.688	1189
19.696	1178
19.704	1166
19.712	1155
19.72	1145
19.728	1135
19.736	1124
19.744	1112
19.752	1104
19.76	1101
19.768	1107
19.776	1130
19.784	1181
19.792	1260
19.8	1366
19.808	1507
19.816	1681
19.824	1876
19.832	2080
19.84	2286
19.848	2479
19.856	2655
19.864	2808
19.872	2927
19.88	3007
19.888	3055
19.896	3077
19.904	3070
19.912	3037
19.92	2986
19.928	2923
19.936	2850
19.944	2767
19.952	2678
19.96	2585
19.968	2489
19.976	2386
19.984	2279
19.992	2171
20	2061
20.008	1953
20.016	1847.99999999995
20.024	1747
20.032	1655
20.04	1574
20.048	1501.99999999997
20.056	1440
20.064	1390
20.072	1353
20.08	1327.99999999999
20.088	1312
20.096	1306
20.104	1310
20.112	1322.00000000001
20.12	1340
20.128	1362
20.136	1385
20.144	1409.00000000001
20.152	1433
20.16	1454
20.168	1469
20.176	1482.00000000001
20.184	1492
20.192	1497
20.2	1497
20.208	1494
20.216	1487
20.224	1478
20.232	1466
20.24	1450.99999999999
20.248	1436
20.256	1420
20.264	1404
20.272	1386.99999999999
20.28	1369
20.288	1352
20.296	1336
20.304	1319.99999999999
20.312	1303
20.32	1287
20.328	1272
20.336	1257.99999999999
20.344	1245
20.352	1232
20.36	1220
20.368	1209
20.376	1198
20.384	1186
20.392	1174
20.4	1161.99999999999
20.408	1151
20.416	1141
20.424	1129
20.432	1115.99999999999
20.44	1104
20.448	1093
20.456	1085
20.464	1082
20.472	1087
20.48	1110
20.488	1163
20.496	1245
20.504	1353
20.512	1496
20.52	1671
20.528	1869
20.536	2077
20.544	2287
20.552	2484
20.56	2663
20.568	2821
20.576	2944
20.584	3026
20.592	3076
20.6	3100
20.608	3094
20.616	3061
20.624	3011
20.632	2949
20.64	2875
20.648	2791
20.656	2701
20.664	2608
20.672	2509
20.68	2404
20.688	2295
20.696	2185
20.704	2073
20.712	1962
20.72	1854
20.728	1752
20.736	1659
20.744	1578
20.752	1506
20.76	1444
20.768	1393
20.776	1354
20.784	1326
20.792	1309
20.8	1302
20.808	1304
20.816	1315
20.824	1332
20.832	1352
20.84	1373
20.848	1395
20.856	1417
20.864	1437
20.872	1453
20.88	1466
20.888	1475
20.896	1481
20.904	1483
20.912	1480
20.92	1474
20.928	1465
20.936	1453
20.944	1440
20.952	1426
20.96	1411
20.968	1395
20.976	1378
20.984	1360
20.992	1343
21	1327
21.008	1311
21.016	1295.99999999999
21.024	1280
21.032	1265
21.04	1252
21.048	1237.99999999999
21.056	1225
21.064	1215
21.072	1204
21.08	1190.99999999999
21.088	1180
21.096	1168
21.104	1155
21.112	1143.99999999999
21.12	1132
21.128	1119
21.136	1107
21.144	1094.99999999999
21.152	1084
21.16	1075
21.168	1069
21.176	1070
21.184	1087
21.192	1133
21.2	1206
21.208	1306.00000000005
21.216	1442
21.224	1611
21.232	1804
21.24	2010.00000000009
21.248	2221
21.256	2421
21.264	2605
21.272	2767.00000000006
21.28	2895
21.288	2984
21.296	3040
21.304	3070
21.312	3070
21.32	3043
21.328	2997
21.336	2936.99999999997
21.344	2865
21.352	2783
21.36	2695
21.368	2601.99999999996
21.376	2503
21.384	2399
21.392	2291
21.4	2182.99999999995
21.408	2074
21.416	1964
21.424	1858
21.432	1757.99999999996
21.44	1664
21.448	1580
21.456	1505
21.464	1439.99999999997
21.472	1387
21.48	1347
21.488	1318
21.496	1299
21.504	1292
21.512	1294
21.52	1304
21.528	1320
21.536	1339
21.544	1361
21.552	1384
21.56	1406
21.568	1426
21.576	1442
21.584	1455
21.592	1464
21.6	1468
21.608	1469
21.616	1468
21.624	1463
21.632	1455
21.64	1444
21.648	1431
21.656	1418
21.664	1402
21.672	1385
21.68	1368
21.688	1350
21.696	1334
21.704	1319
21.712	1304
21.72	1290
21.728	1277
21.736	1264
21.744	1250
21.752	1236
21.76	1222
21.768	1208
21.776	1195
21.784	1183
21.792	1172
21.8	1161
21.808	1150
21.816	1139
21.824	1129
21.832	1117
21.84	1104
21.848	1090
21.856	1077
21.864	1068
21.872	1062
21.88	1066
21.888	1089
21.896	1141
21.904	1219
21.912	1324
21.92	1462
21.928	1631
21.936	1823
21.944	2026
21.952	2232
21.96	2427
21.968	2606
21.976	2762
21.984	2885
21.992	2971
22	3025
22.008	3052
22.016	3048
22.024	3017
22.032	2968
22.04	2906
22.048	2832.99999999997
22.056	2751
22.064	2663
22.072	2571
22.08	2473.99999999996
22.088	2370
22.096	2263
22.104	2156
22.112	2045.99999999995
22.12	1936
22.128	1828
22.136	1726
22.144	1633.99999999996
22.152	1552
22.16	1479
22.168	1416
22.176	1364.99999999998
22.184	1329
22.192	1303
22.2	1287
22.208	1282
22.216	1285
22.224	1296
22.232	1312
22.24	1333.00000000001
22.248	1356
22.256	1378
22.264	1400
22.272	1420.00000000001
22.28	1436
22.288	1449
22.296	1459
22.304	1465
22.312	1467
22.32	1465
22.328	1460
22.336	1451
22.344	1440
22.352	1427
22.36	1414
22.368	1398.99999999999
22.376	1385
22.384	1371
22.392	1356
22.4	1340.99999999999
22.408	1327
22.416	1313
22.424	1299
22.432	1284.99999999999
22.44	1272
22.448	1259
22.456	1248
22.464	1237
22.472	1226
22.48	1215
22.488	1205
22.496	1195
22.504	1184
22.512	1171
22.52	1159
22.528	1147
22.536	1134
22.544	1120
22.552	1108
22.56	1097
22.568	1090
22.576	1088
22.584	1097
22.592	1127
22.6	1188
22.608	1278
22.616	1397
22.624	1552
22.632	1735
22.64	1936
22.648	2144
22.656	2350
22.664	2538
22.672	2705
22.68	2849
22.688	2959
22.696	3030
22.704	3069
22.712	3082
22.72	3068
22.728	3031
22.736	2978
22.744	2914
22.752	2839
22.76	2755
22.768	2665
22.776	2572
22.784	2472
22.792	2366
22.8	2258
22.808	2149
22.816	2041
22.824	1936
22.832	1834
22.84	1738
22.848	1650
22.856	1572
22.864	1505
22.872	1449
22.88	1405
22.888	1375
22.896	1355
22.904	1344
22.912	1343
22.92	1350
22.928	1363
22.936	1382
22.944	1403
22.952	1426
22.96	1449
22.968	1471
22.976	1489
22.984	1502
22.992	1511
23	1518
23.008	1519
23.016	1516
23.024	1510
23.032	1502
23.04	1493
23.048	1481.99999999999
23.056	1467
23.064	1452
23.072	1435
23.08	1417.99999999999
23.088	1401
23.096	1384
23.104	1366
23.112	1348.99999999999
23.12	1334
23.128	1319
23.136	1306
23.144	1291.99999999999
23.152	1278
23.16	1265
23.168	1252
23.176	1239.99999999999
23.184	1228
23.192	1216
23.2	1205
23.208	1192.99999999999
23.216	1181
23.224	1170
23.232	1158
23.24	1144.99999999999
23.248	1132
23.256	1119
23.264	1108
23.272	1102
23.28	1104
23.288	1119
23.296	1155
23.304	1222.00000000004
23.312	1318
23.32	1441
23.328	1598
23.336	1782.00000000009
23.344	1982
23.352	2188
23.36	2390
23.368	2572.00000000008
23.376	2733
23.384	2871
23.392	2974
23.4	3037.00000000002
23.408	3070
23.416	3077
23.424	3057
23.432	3014.99999999998
23.44	2958
23.448	2890
23.456	2812
23.464	2724.99999999996
23.472	2633
23.48	2537
23.488	2435
23.496	2326.99999999995
23.504	2216
23.512	2104
23.52	1993
23.528	1885.99999999995
23.536	1783
23.544	1689
23.552	1604
23.56	1528
23.568	1463
23.576	1409
23.584	1367
23.592	1338
23.6	1320
23.608	1312
23.616	1314
23.624	1324
23.632	1340
23.64	1360
23.648	1383
23.656	1407
23.664	1430
23.672	1451
23.68	1469
23.688	1483
23.696	1493
23.704	1499
23.712	1501
23.72	1499
23.728	1494
23.736	1486
23.744	1475
23.752	1462
23.76	1447
23.768	1431
23.776	1414
23.784	1397
23.792	1380
23.8	1362
23.808	1346
23.816	1331
23.824	1316
23.832	1301
23.84	1287
23.848	1273
23.856	1260
23.864	1246
23.872	1232
23.88	1218
23.888	1205
23.896	1193
23.904	1180
23.912	1167
23.92	1155
23.928	1142
23.936	1128
23.944	1113
23.952	1098
23.96	1083
23.968	1070
23.976	1065
23.984	1070
23.992	1088
24	1130
24.008	1206
24.016	1313.00000000005
24.024	1447
24.032	1612
24.04	1801
24.048	2004.00000000009
24.056	2208
24.064	2404
24.072	2579
24.08	2732.00000000006
24.088	2858
24.096	2949
24.104	3002
24.112	3023
24.12	3022
24.128	2995
24.136	2946
24.144	2881.99999999997
24.152	2809
24.16	2728
24.168	2638
24.176	2542.99999999996
24.184	2444
24.192	2338
24.2	2228
24.208	2115.99999999995
24.216	2004
24.224	1893
24.232	1786
24.24	1683.99999999996
24.248	1589
24.256	1504
24.264	1431
24.272	1369.99999999998
24.28	1319
24.288	1282
24.296	1258
24.304	1244
24.312	1239
24.32	1245
24.328	1259
24.336	1278.00000000001
24.344	1300
24.352	1325
24.36	1350
24.368	1372.00000000001
24.376	1392
24.384	1408
24.392	1419
24.4	1427
24.408	1432
24.416	1433
24.424	1430
24.432	1423
24.44	1415
24.448	1404
24.456	1390
24.464	1374.99999999999
24.472	1360
24.48	1344
24.488	1328
24.496	1310.99999999999
24.504	1294
24.512	1277
24.52	1262
24.528	1246.99999999999
24.536	1233
24.544	1220
24.552	1206
24.56	1191.99999999999
24.568	1179
24.576	1167
24.584	1155
24.592	1144
24.6	1132
24.608	1120
24.616	1109
24.624	1099
24.632	1089
24.64	1078
24.648	1066
24.656	1053
24.664	1041
24.672	1033
24.68	1035
24.688	1048
24.696	1076
24.704	1130
24.712	1218
24.72	1335
24.728	1478
24.736	1649
24.744	1840
24.752	2040
24.76	2240
24.768	2428
24.776	2590
24.784	2728
24.792	2841
24.8	2919
24.808	2960
24.816	2971
24.824	2960
24.832	2926
24.84	2872
24.848	2804
24.856	2728
24.864	2644
24.872	2552
24.88	2455
24.888	2355
24.896	2249
24.904	2138
24.912	2026
24.92	1915
24.928	1807
24.936	1705
24.944	1609
24.952	1521
24.96	1444
24.968	1379
24.976	1325
24.984	1282
24.992	1253
25	1238
25.008	1232
25.016	1234
25.024	1245
25.032	1263
25.04	1284
25.048	1307.00000000001
25.056	1333
25.064	1357
25.072	1378
25.08	1396.00000000001
25.088	1410
25.096	1420
25.104	1426
25.112	1429
25.12	1429
25.128	1424
25.136	1415
25.144	1405
25.152	1393
25.16	1378
25.168	1361
25.176	1344.99999999999
25.184	1329
25.192	1313
25.2	1297
25.208	1279.99999999999
25.216	1263
25.224	1248
25.232	1233
25.24	1217.99999999999
25.248	1203
25.256	1191
25.264	1179
25.272	1166.99999999999
25.28	1155
25.288	1143
25.296	1131
25.304	1118.99999999999
25.312	1107
25.32	1095
25.328	1083
25.336	1072
25.344	1061
25.352	1050
25.36	1039
25.368	1031
25.376	1029
25.384	1042
25.392	1070
25.4	1118.00000000003
25.408	1197
25.416	1313
25.424	1458
25.432	1625.00000000008
25.44	1814
25.448	2012
25.456	2211
25.464	2402.00000000008
25.472	2573
25.48	2713
25.488	2823
25.496	2904.00000000003
25.504	2950
25.512	2963
25.52	2950
25.528	2915.99999999998
25.536	2864
25.544	2798
25.552	2722
25.56	2639.99999999996
25.568	2551
25.576	2455
25.584	2353
25.592	2246.99999999995
25.6	2138
25.608	2026
25.616	1915
25.624	1808
25.632	1704
25.64	1608
25.648	1520
25.656	1440
25.664	1372
25.672	1317
25.68	1273
25.688	1240
25.696	1219
25.704	1211
25.712	1212
25.72	1219
25.728	1234
25.736	1252
25.744	1273
25.752	1297
25.76	1320
25.768	1340
25.776	1358
25.784	1373
25.792	1383
25.8	1388
25.808	1389
25.816	1387
25.824	1382
25.832	1374
25.84	1364
25.848	1352
25.856	1338
25.864	1322
25.872	1305
25.88	1289
25.888	1272
25.896	1254
25.904	1237
25.912	1220
25.92	1203
25.928	1189
25.936	1175
25.944	1161
25.952	1148
25.96	1135
25.968	1123
25.976	1110
25.984	1096
25.992	1083
26	1071
26.008	1059
26.016	1046.99999999999
26.024	1036
26.032	1025
26.04	1014
26.048	1001.99999999999
26.056	991
26.064	981
26.072	975
26.08	981.000000000004
26.088	1009
26.096	1058
26.104	1131
26.112	1240.00000000006
26.12	1383
26.128	1552
26.136	1736
26.144	1933.00000000009
26.152	2129
26.16	2314
26.168	2481
26.176	2620.00000000005
26.184	2723
26.192	2796
26.2	2841
26.208	2856
26.216	2842
26.224	2807
26.232	2758
26.24	2694.99999999997
26.248	2622
26.256	2541
26.264	2455
26.272	2362.99999999996
26.28	2265
26.288	2163
26.296	2058
26.304	1949.99999999995
26.312	1842
26.32	1736
26.328	1635
26.336	1539.99999999996
26.344	1453
26.352	1377
26.36	1310
26.368	1253.99999999998
26.376	1211
26.384	1179
26.392	1157
26.4	1147
26.408	1147
26.416	1155
26.424	1169
26.432	1187.00000000001
26.44	1208
26.448	1230
26.456	1252
26.464	1272.00000000001
26.472	1288
26.48	1301
26.488	1311
26.496	1316
26.504	1318
26.512	1317
26.52	1313
26.528	1305
26.536	1294
26.544	1281
26.552	1268
26.56	1252.99999999999
26.568	1236
26.576	1219
26.584	1204
26.592	1186.99999999999
26.6	1170
26.608	1153
26.616	1137
26.624	1120.99999999999
26.632	1106
26.64	1091
26.648	1077
26.656	1064
26.664	1051
26.672	1039
26.68	1027
26.688	1015
26.696	1003
26.704	991
26.712	979
26.72	967
26.728	955
26.736	944
26.744	933
26.752	922
26.76	913
26.768	909
26.776	913
26.784	932
26.792	976
26.8	1046
26.808	1142
26.816	1271
26.824	1429
26.832	1607
26.84	1795
26.848	1985
26.856	2163
26.864	2324
26.872	2465
26.88	2576
26.888	2649
26.896	2692
26.904	2710
26.912	2702
26.92	2670
26.928	2621
26.936	2563
26.944	2457
26.952	2378
26.96	2296
26.968	2120
26.976	2024
26.984	1926
26.992	1726
27	1629
27.008	1536
27.016	1368.99999999996
27.024	1301
27.032	1242
27.04	1171
27.048	1138.99999999999
27.056	1118
27.064	1106
27.072	1103
27.08	1109
27.088	1122
27.096	1139
27.104	1160
27.112	1181.00000000001
27.12	1203
27.128	1224
27.136	1240
27.144	1253.00000000001
27.152	1265
27.16	1273
27.168	1277
27.176	1277
27.184	1274
27.192	1268
27.2	1259
27.208	1247.99999999999
27.216	1234
27.224	1220
27.232	1206
27.24	1190.99999999999
27.248	1177
27.256	1163
27.264	1148
27.272	1132.99999999999
27.28	1119
27.288	1104
27.296	1089
27.304	1075.99999999999
27.312	1063
27.32	1050
27.328	1036
27.336	1022.99999999999
27.344	1011
27.352	999
27.36	987
27.368	974.999999999995
27.376	964
27.384	953
27.392	943
27.4	931.999999999995
27.408	920
27.416	909
27.424	899
27.432	895
27.44	899
27.448	916
27.456	954
27.464	1022.00000000004
27.472	1117
27.48	1237
27.488	1384
27.496	1550.00000000008
27.504	1728
27.512	1907
27.52	2078
27.528	2229.00000000006
27.536	2359
27.544	2464
27.552	2537
27.56	2578.00000000001
27.568	2592
27.576	2585
27.584	2558
27.592	2513.99999999998
27.6	2459
27.608	2398
27.616	2329
27.624	2253.99999999997
27.632	2173
27.64	2090
27.648	2002
27.656	1909
27.664	1817
27.672	1726
27.68	1635
27.688	1548
27.696	1465
27.704	1389
27.712	1321
27.72	1262
27.728	1211
27.736	1170
27.744	1140
27.752	1120
27.76	1108
27.768	1105
27.776	1110
27.784	1120
27.792	1136
27.8	1156
27.808	1177
27.816	1197
27.824	1216
27.832	1233
27.84	1248
27.848	1259
27.856	1266
27.864	1269
27.872	1271
27.88	1269
27.888	1263
27.896	1255
27.904	1245
27.912	1234
27.92	1221
27.928	1209
27.936	1197
27.944	1183
27.952	1169
27.96	1155
27.968	1141
27.976	1127
27.984	1114
27.992	1102
28	1091
28.008	1081
28.016	1070
28.024	1059
28.032	1049
28.04	1038
28.048	1027
28.056	1017
28.064	1007
28.072	997
28.08	986.999999999996
28.088	978
28.096	968
28.104	957
28.112	945.999999999995
28.12	935
28.128	928
28.136	932
28.144	950.00000000001
28.152	984
28.16	1043
28.168	1134
28.176	1250.00000000006
28.184	1387
28.192	1547
28.2	1718
28.208	1891.00000000008
28.216	2059
28.224	2211
28.232	2336
28.24	2436.00000000004
28.248	2513
28.256	2560
28.264	2577
28.272	2573
28.28	2552
28.288	2513
28.296	2462
28.304	2402.99999999997
28.312	2339
28.32	2269
28.328	2194
28.336	2114.99999999996
28.344	2034
28.352	1950
28.36	1864
28.368	1776.99999999996
28.376	1691
28.384	1607
28.392	1528
28.4	1452.99999999997
28.408	1386
28.416	1328
28.424	1280
28.432	1239.99999999998
28.44	1209
28.448	1188
28.456	1176
28.464	1173
28.472	1177
28.48	1188
28.488	1203
28.496	1222.00000000001
28.504	1242
28.512	1263
28.52	1284
28.528	1301.00000000001
28.536	1315
28.544	1327
28.552	1336
28.56	1341
28.568	1345
28.576	1345
28.584	1340
28.592	1332
28.6	1324
28.608	1316
28.616	1306
28.624	1293.99999999999
28.632	1282
28.64	1270
28.648	1258
28.656	1245.99999999999
28.664	1235
28.672	1226
28.68	1216
28.688	1204
28.696	1192
28.704	1181
28.712	1171
28.72	1162
28.728	1151
28.736	1140
28.744	1129
28.752	1119
28.76	1110
28.768	1100
28.776	1090
28.784	1081
28.792	1072
28.8	1062
28.808	1053
28.816	1045
28.824	1039
28.832	1040
28.84	1057
28.848	1093
28.856	1149
28.864	1233
28.872	1348
28.88	1486
28.888	1641
28.896	1811
28.904	1981
28.912	2144
28.92	2294
28.928	2422
28.936	2519
28.944	2589
28.952	2635
28.96	2653
28.968	2646
28.976	2621
28.984	2585
28.992	2536
29	2476
29.008	2410
29.016	2340.99999999997
29.024	2269
29.032	2191
29.04	2109
29.048	2024.99999999996
29.056	1939
29.064	1853
29.072	1767
29.08	1682.99999999996
29.088	1605
29.096	1533
29.104	1467
29.112	1407.99999999998
29.12	1358
29.128	1319
29.136	1290
29.144	1268.99999999999
29.152	1257
29.16	1254
29.168	1258
29.176	1268.00000000001
29.184	1283
29.192	1301
29.2	1321
29.208	1342.00000000001
29.216	1361
29.224	1378
29.232	1393
29.24	1406
29.248	1414
29.256	1419
29.264	1422
29.272	1421
29.28	1417
29.288	1410
29.296	1401
29.304	1392
29.312	1381
29.32	1370
29.328	1357
29.336	1344.99999999999
29.344	1333
29.352	1319
29.36	1305
29.368	1291.99999999999
29.376	1278
29.384	1265
29.392	1254
29.4	1241.99999999999
29.408	1230
29.416	1219
29.424	1209
29.432	1198
29.44	1187
29.448	1177
29.456	1167
29.464	1157
29.472	1147
29.48	1138
29.488	1128
29.496	1117
29.504	1106
29.512	1095
29.52	1086
29.528	1081
29.536	1088
29.544	1115
29.552	1162
29.56	1228.00000000003
29.568	1323
29.576	1449
29.584	1598
29.592	1760.00000000007
29.6	1929
29.608	2094
29.616	2248
29.624	2386.00000000006
29.632	2498
29.64	2578
29.648	2632
29.656	2663
29.664	2669
29.672	2652
29.68	2618
29.688	2572.99999999998
29.696	2518
29.704	2455
29.712	2389
29.72	2319
29.728	2244
29.736	2165
29.744	2084
29.752	2001
29.76	1917
29.768	1833
29.776	1751
29.784	1672
29.792	1596
29.8	1527
29.808	1466
29.816	1412
29.824	1368
29.832	1334
29.84	1309
29.848	1292
29.856	1284
29.864	1286
29.872	1295
29.88	1309
29.888	1326
29.896	1345
29.904	1366
29.912	1385
29.92	1404
29.928	1420
29.936	1432
29.944	1440
29.952	1444
29.96	1445
29.968	1444
29.976	1441
29.984	1436
29.992	1428
30	1421
30.008	1414
30.016	1405
30.024	1396
30.032	1386
30.04	1376
30.048	1364.99999999999
30.056	1353
30.064	1340
30.072	1327
30.08	1314.99999999999
30.088	1303
30.096	1291
30.104	1279
30.112	1268
30.12	1257
30.128	1247
30.136	1238
30.144	1228
30.152	1216
30.16	1203
30.168	1191
30.176	1178.99999999999
30.184	1167
30.192	1155
30.2	1143
30.208	1131
30.216	1121
30.224	1114
30.232	1112
30.24	1122.00000000001
30.248	1153
30.256	1205
30.264	1278
30.272	1380.00000000005
30.28	1512
30.288	1664
30.296	1828
30.304	1999.00000000007
30.312	2163
30.32	2315
30.328	2451
30.336	2561.00000000004
30.344	2638
30.352	2687
30.36	2715
30.368	2718
30.376	2700
30.384	2668
30.392	2624
30.4	2568.99999999997
30.408	2505
30.416	2434
30.424	2360
30.432	2281.99999999996
30.44	2198
30.448	2111
30.456	2024
30.464	1934.99999999996
30.472	1846
30.48	1759
30.488	1678
30.496	1601.99999999997
30.504	1533
30.512	1473
30.52	1421
30.528	1378.99999999998
30.536	1349
30.544	1329
30.552	1317
30.56	1314
30.568	1319
30.576	1331
30.584	1348
30.592	1368.00000000001
30.6	1390
30.608	1412
30.616	1433
30.624	1454.00000000001
30.632	1472
30.64	1487
30.648	1498
30.656	1503
30.664	1506
30.672	1506
30.68	1504
30.688	1500
30.696	1493
30.704	1484
30.712	1473
30.72	1462
30.728	1449
30.736	1436
30.744	1423
30.752	1410
30.76	1396
30.768	1383
30.776	1370
30.784	1356
30.792	1344
30.8	1333
30.808	1322
30.816	1310
30.824	1298
30.832	1287
30.84	1277
30.848	1267
30.856	1258
30.864	1248
30.872	1238
30.88	1228
30.888	1218
30.896	1208
30.904	1197
30.912	1186
30.92	1177
30.928	1172
30.936	1173
30.944	1190
30.952	1230
30.96	1292
30.968	1378
30.976	1495
30.984	1641
30.992	1806
31	1980
31.008	2159
31.016	2330.00000000007
31.024	2486
31.032	2624
31.04	2734
31.048	2810.00000000003
31.056	2859
31.064	2887
31.072	2889
31.08	2867.99999999999
31.088	2831
31.096	2783
31.104	2723
31.112	2652.99999999997
31.12	2578
31.128	2500
31.136	2417
31.144	2329.99999999996
31.152	2240
31.16	2149
31.168	2057
31.176	1964.99999999996
31.184	1876
31.192	1791
31.2	1714
31.208	1644.99999999997
31.216	1585
31.224	1534
31.232	1493
31.24	1462.99999999999
31.248	1442
31.256	1429
31.264	1425
31.272	1429
31.28	1440
31.288	1456
31.296	1475
31.304	1495.00000000001
31.312	1516
31.32	1537
31.328	1556
31.336	1570.00000000001
31.344	1581
31.352	1590
31.36	1595
31.368	1598
31.376	1597
31.384	1593
31.392	1587
31.4	1578
31.408	1567
31.416	1556
31.424	1542
31.432	1526.99999999999
31.44	1512
31.448	1497
31.456	1483
31.464	1468.99999999999
31.472	1455
31.48	1441
31.488	1428
31.496	1414.99999999999
31.504	1403
31.512	1391
31.52	1379
31.528	1366.99999999999
31.536	1355
31.544	1343
31.552	1332
31.56	1321
31.568	1311
31.576	1301
31.584	1290
31.592	1277.99999999999
31.6	1266
31.608	1253
31.616	1241
31.624	1234
31.632	1232
31.64	1241
31.648	1269
31.656	1324.00000000003
31.664	1404
31.672	1508
31.68	1643
31.688	1805.00000000008
31.696	1983
31.704	2168
31.712	2351
31.72	2520.00000000007
31.728	2670
31.736	2799
31.744	2900
31.752	2966
31.76	3004
31.768	3020
31.776	3011
31.784	2981
31.792	2937
31.8	2882
31.808	2816
31.816	2742
31.824	2662
31.832	2578
31.84	2490
31.848	2397
31.856	2301
31.864	2204
31.872	2105
31.88	2009
31.888	1917
31.896	1830
31.904	1751
31.912	1683
31.92	1624
31.928	1573
31.936	1534
31.944	1507
31.952	1489
31.96	1480
31.968	1481
31.976	1489
31.984	1502
31.992	1519
32	1540
32.008	1561
32.016	1582
32.024	1601
32.032	1618.00000000001
32.04	1631
32.048	1641
32.056	1647
32.064	1650
32.072	1649
32.08	1645
32.088	1639
32.096	1629.99999999999
32.104	1618
32.112	1606
32.12	1593
32.128	1579
32.136	1564
32.144	1547
32.152	1531
32.16	1515.99999999999
32.168	1499
32.176	1483
32.184	1468
32.192	1452
32.2	1436
32.208	1422
32.216	1409
32.224	1395.99999999999
32.232	1382
32.24	1368
32.248	1356
32.256	1345
32.264	1334
32.272	1323
32.28	1313
32.288	1301.99999999999
32.296	1290
32.304	1278
32.312	1266
32.32	1254
32.328	1248
32.336	1251
32.344	1267
32.352	1305.00000000004
32.36	1374
32.368	1470
32.376	1592
32.384	1745
32.392	1924
32.4	2118
32.408	2315
32.416	2507.00000000016
32.424	2679
32.432	2828
32.44	2953
32.448	3046
32.456	3102
32.464	3129
32.472	3134
32.48	3113.99999999998
32.488	3075
32.496	3023
32.504	2961
32.512	2890
32.52	2809
32.528	2722
32.536	2631
32.544	2535.99999999991
32.552	2435
32.56	2333
32.568	2231
32.576	2129
32.584	2030
32.592	1936
32.6	1848
32.608	1766.99999999993
32.616	1698
32.624	1639
32.632	1589
32.64	1550
32.648	1523
32.656	1507
32.664	1500
32.672	1502
32.68	1513
32.688	1530
32.696	1548
32.704	1567
32.712	1587
32.72	1607
32.728	1625
32.736	1640.00000000001
32.744	1652
32.752	1661
32.76	1666
32.768	1667
32.776	1665
32.784	1659
32.792	1651
32.8	1641
32.808	1628
32.816	1613
32.824	1598
32.832	1581
32.84	1565
32.848	1549
32.856	1533
32.864	1516
32.872	1498
32.88	1483
32.888	1469
32.896	1453
32.904	1438
32.912	1424
32.92	1410
32.928	1396
32.936	1383
32.944	1371
32.952	1358
32.96	1344
32.968	1331
32.976	1320
32.984	1308
32.992	1295
33	1282
33.008	1268
33.016	1255
33.024	1244
33.032	1239
33.04	1244
33.048	1262
33.056	1304
33.064	1381
33.072	1489
33.08	1623
33.088	1789
33.096	1979.00000000017
33.104	2182
33.112	2387
33.12	2584
33.128	2759
33.136	2912
33.144	3038
33.152	3129
33.16	3185.00000000003
33.168	3211
33.176	3213
33.184	3191
33.192	3147
33.2	3088
33.208	3020
33.216	2944
33.224	2858.99999999992
33.232	2768
33.24	2673
33.248	2574
33.256	2468
33.264	2360
33.272	2252
33.28	2143
33.288	2037.99999999991
33.296	1938
33.304	1845
33.312	1761
33.32	1688
33.328	1626
33.336	1575
33.344	1536
33.352	1508.99999999998
33.36	1493
33.368	1485
33.376	1487
33.384	1498
33.392	1514
33.4	1533
33.408	1555
33.416	1577.00000000002
33.424	1598
33.432	1618
33.44	1636
33.448	1648
33.456	1655
33.464	1660
33.472	1660
33.48	1655
33.488	1649
33.496	1641
33.504	1629
33.512	1615
33.52	1600
33.528	1583
33.536	1566
33.544	1548.99999999998
33.552	1532
33.56	1513
33.568	1495
33.576	1478
33.584	1461
33.592	1446
33.6	1431
33.608	1415.99999999999
33.616	1401
33.624	1387
33.632	1371
33.64	1355
33.648	1341
33.656	1329
33.664	1318
33.672	1305.99999999999
33.68	1294
33.688	1282
33.696	1269
33.704	1255
33.712	1240
33.72	1225
33.728	1214
33.736	1211
33.744	1218
33.752	1238
33.76	1284
33.768	1365
33.776	1476
33.784	1614
33.792	1783
33.8	1977
33.808	2187
33.816	2400
33.824	2604
33.832	2785
33.84	2943
33.848	3074
33.856	3166
33.864	3219
33.872	3243
33.88	3243
33.888	3218
33.896	3173
33.904	3114
33.912	3044
33.92	2965
33.928	2877
33.936	2783
33.944	2686
33.952	2583
33.96	2474
33.968	2362
33.976	2251
33.984	2142
33.992	2036
34	1935
34.008	1841
34.016	1756
34.024	1682
34.032	1617.99999999995
34.04	1565
34.048	1525
34.056	1498
34.064	1482
34.072	1474
34.08	1476
34.088	1486
34.096	1501.00000000002
34.104	1521
34.112	1542
34.12	1561
34.128	1580
34.136	1597
34.144	1611
34.152	1622
34.16	1629
34.168	1632
34.176	1631
34.184	1627
34.192	1619
34.2	1609
34.208	1597
34.216	1582
34.224	1564.99999999999
34.232	1549
34.24	1532
34.248	1513
34.256	1495
34.264	1477
34.272	1459
34.28	1442
34.288	1424.99999999999
34.296	1409
34.304	1393
34.312	1378
34.32	1364
34.328	1350
34.336	1337
34.344	1325
34.352	1311.99999999999
34.36	1299
34.368	1286
34.376	1272
34.384	1260
34.392	1248
34.4	1236
34.408	1225
34.416	1212.99999999999
34.424	1200
34.432	1189
34.44	1186
34.448	1192
34.456	1213
34.464	1258
34.472	1338
34.48	1450.00000000011
34.488	1589
34.496	1762
34.504	1960
34.512	2172
34.52	2387
34.528	2595
34.536	2781
34.544	2943.00000000013
34.552	3078
34.56	3175
34.568	3233
34.576	3260
34.584	3261
34.592	3237
34.6	3191
34.608	3128.99999999994
34.616	3057
34.624	2975
34.632	2884
34.64	2788
34.648	2688
34.656	2583
34.664	2474
34.672	2360.9999999999
34.68	2249
34.688	2137
34.696	2028
34.704	1923
34.712	1826
34.72	1738
34.728	1662
34.736	1596.99999999995
34.744	1543
34.752	1502
34.76	1474
34.768	1458
34.776	1452
34.784	1456
34.792	1468
34.8	1487.00000000002
34.808	1509
34.816	1531
34.824	1553
34.832	1575
34.84	1596
34.848	1612
34.856	1622
34.864	1629
34.872	1634
34.88	1633
34.888	1629
34.896	1622
34.904	1610
34.912	1596
34.92	1581
34.928	1564
34.936	1545
34.944	1527
34.952	1508
34.96	1488
34.968	1470
34.976	1452
34.984	1434
34.992	1417
35	1401
35.008	1386
35.016	1371
35.024	1357
35.032	1343.99999999999
35.04	1329
35.048	1314
35.056	1300
35.064	1286
35.072	1272
35.08	1259
35.088	1247
35.096	1234.99999999999
35.104	1223
35.112	1210
35.12	1195
35.128	1181
35.136	1169
35.144	1165
35.152	1170
35.16	1188.00000000002
35.168	1232
35.176	1314
35.184	1429
35.192	1573
35.2	1751
35.208	1955
35.216	2174
35.224	2395.00000000019
35.232	2609
35.24	2800
35.248	2965
35.256	3104
35.264	3204
35.272	3263
35.28	3290
35.288	3291
35.296	3267
35.304	3220
35.312	3156
35.32	3081
35.328	2997
35.336	2905
35.344	2806
35.352	2700.9999999999
35.36	2592
35.368	2477
35.376	2360
35.384	2243
35.392	2126
35.4	2012
35.408	1905
35.416	1804.99999999992
35.424	1714
35.432	1634
35.44	1566
35.448	1510
35.456	1467
35.464	1438
35.472	1419
35.48	1411
35.488	1414
35.496	1425
35.504	1442
35.512	1462
35.52	1486
35.528	1510
35.536	1532
35.544	1552.00000000002
35.552	1568
35.56	1579
35.568	1586
35.576	1589
35.584	1589
35.592	1585
35.6	1578
35.608	1567.99999999999
35.616	1557
35.624	1544
35.632	1527
35.64	1509
35.648	1491
35.656	1473
35.664	1454
35.672	1434.99999999998
35.68	1418
35.688	1401
35.696	1385
35.704	1369
35.712	1353
35.72	1337
35.728	1322
35.736	1306.99999999999
35.744	1293
35.752	1279
35.76	1265
35.768	1252
35.776	1239
35.784	1227
35.792	1215
35.8	1202.99999999999
35.808	1190
35.816	1176
35.824	1162
35.832	1147
35.84	1133
35.848	1124
35.856	1122
35.864	1131
35.872	1162
35.88	1227
35.888	1323
35.896	1448
35.904	1609
35.912	1802
35.92	2014
35.928	2234
35.936	2453
35.944	2656
35.952	2838
35.96	2994
35.968	3113
35.976	3192
35.984	3236
35.992	3253
36	3241
36.008	3202
36.016	3146
36.024	3080
36.032	3001.99999999993
36.04	2913
36.048	2818
36.056	2717
36.064	2610
36.072	2497
36.08	2381
36.088	2262
36.096	2140.99999999989
36.104	2024
36.112	1912
36.12	1806
36.128	1708
36.136	1621
36.144	1546
36.152	1482
36.16	1431.99999999996
36.168	1397
36.176	1375
36.184	1363
36.192	1361
36.2	1368
36.208	1381
36.216	1400
36.224	1421.00000000002
36.232	1443
36.24	1466
36.248	1487
36.256	1505
36.264	1518
36.272	1526
36.28	1530
36.288	1530
36.296	1526
36.304	1519
36.312	1511
36.32	1500
36.328	1486
36.336	1471
36.344	1455
36.352	1437.99999999998
36.36	1420
36.368	1401
36.376	1383
36.384	1366
36.392	1348
36.4	1330
36.408	1312
36.416	1294.99999999999
36.424	1279
36.432	1263
36.44	1249
36.448	1236
36.456	1222
36.464	1208
36.472	1194
36.48	1179.99999999999
36.488	1167
36.496	1155
36.504	1144
36.512	1132
36.52	1118
36.528	1105
36.536	1093
36.544	1078.99999999999
36.552	1068
36.56	1061
36.568	1061
36.576	1076
36.584	1119
36.592	1190
36.6	1287
36.608	1422.00000000013
36.616	1593
36.624	1791
36.632	2005
36.64	2228
36.648	2443
36.656	2645
36.664	2826
36.672	2973.00000000011
36.68	3080
36.688	3151
36.696	3192
36.704	3199
36.712	3177
36.72	3133
36.728	3074
36.736	3000.99999999993
36.744	2917
36.752	2824
36.76	2725
36.768	2621
36.776	2511
36.784	2396
36.792	2277
36.8	2156.99999999989
36.808	2038
36.816	1921
36.824	1810
36.832	1706
36.84	1612
36.848	1529
36.856	1458
36.864	1399.99999999996
36.872	1357
36.88	1326
36.888	1305
36.896	1297
36.904	1300
36.912	1312
36.92	1331
36.928	1355
36.936	1381
36.944	1407
36.952	1432
36.96	1455
36.968	1475
36.976	1490
36.984	1500
36.992	1506
37	1506
37.008	1502
37.016	1496
37.024	1487
37.032	1475.99999999999
37.04	1461
37.048	1445
37.056	1429
37.064	1413
37.072	1396
37.08	1377
37.088	1359
37.096	1340.99999999998
37.104	1323
37.112	1305
37.12	1288
37.128	1272
37.136	1256
37.144	1242
37.152	1229
37.16	1214.99999999999
37.168	1202
37.176	1190
37.184	1178
37.192	1166
37.2	1154
37.208	1142
37.216	1131
37.224	1120.99999999999
37.232	1110
37.24	1097
37.248	1077
37.256	1065
37.264	1056
37.272	1057
37.28	1082
37.288	1128.00000000005
37.296	1199
37.304	1382
37.312	1547
37.32	1739
37.328	2175
37.336	2397
37.344	2607
37.352	2949.00000000016
37.36	3067
37.368	3151
37.376	3217
37.384	3214
37.392	3184
37.4	3137
37.408	3073
37.416	2993.99999999993
37.424	2905
37.432	2811
37.44	2711
37.448	2604
37.456	2491
37.464	2375
37.472	2256
37.48	2133.99999999989
37.488	2013
37.496	1898
37.504	1787
37.512	1686
37.52	1595
37.528	1514
37.536	1446
37.544	1393.99999999996
37.552	1354
37.56	1324
37.568	1306
37.576	1301
37.584	1307
37.592	1321
37.6	1342
37.608	1366.00000000002
37.616	1392
37.624	1419
37.632	1445
37.64	1467
37.648	1484
37.656	1496
37.664	1505
37.672	1509
37.68	1508
37.688	1504
37.696	1497
37.704	1486
37.712	1472
37.72	1458
37.728	1443
37.736	1426.99999999998
37.744	1409
37.752	1390
37.76	1370
37.768	1350
37.776	1331
37.784	1315
37.792	1300
37.8	1283.99999999999
37.808	1269
37.816	1255
37.824	1240
37.832	1226
37.84	1213
37.848	1200
37.856	1187
37.864	1174.99999999999
37.872	1163
37.88	1151
37.888	1139
37.896	1127
37.904	1116
37.912	1105
37.92	1092
37.928	1077
37.936	1064
37.944	1053
37.952	1050
37.96	1064
37.968	1096
37.976	1149
37.984	1237
37.992	1367
38	1530
38.008	1717
38.016	1930
38.024	2155
38.032	2382.0000000002
38.04	2598
38.048	2792
38.056	2951
38.064	3076
38.072	3169
38.08	3225
38.088	3242
38.096	3229.99999999998
38.104	3197
38.112	3143
38.12	3072
38.128	2989
38.136	2899
38.144	2800
38.152	2693
38.16	2582.9999999999
38.168	2468
38.176	2348
38.184	2226
38.192	2103
38.2	1983
38.208	1866
38.216	1757
38.224	1658.99999999992
38.232	1569
38.24	1491
38.248	1428
38.256	1377
38.264	1339
38.272	1314
38.28	1302
38.288	1302
38.296	1311
38.304	1328
38.312	1349
38.32	1374
38.328	1400
38.336	1426
38.344	1449
38.352	1470.00000000002
38.36	1487
38.368	1499
38.376	1505
38.384	1507
38.392	1506
38.4	1501
38.408	1492
38.416	1477.99999999999
38.424	1464
38.432	1448
38.44	1429
38.448	1411
38.456	1393
38.464	1374
38.472	1355
38.48	1336.99999999998
38.488	1319
38.496	1302
38.504	1285
38.512	1269
38.52	1253
38.528	1239
38.536	1226
38.544	1212.99999999999
38.552	1202
38.56	1190
38.568	1177
38.576	1164
38.584	1151
38.592	1139
38.6	1128
38.608	1116.99999999999
38.616	1107
38.624	1096
38.632	1083
38.64	1071
38.648	1059
38.656	1049
38.664	1050
38.672	1062.00000000002
38.68	1092
38.688	1153
38.696	1253
38.704	1387
38.712	1551
38.72	1748
38.728	1967
38.736	2196.0000000002
38.744	2422
38.752	2635
38.76	2821
38.768	2978
38.776	3103
38.784	3189
38.792	3234
38.8	3245
38.808	3231
38.816	3193
38.824	3134
38.832	3060
38.84	2978
38.848	2887
38.856	2788
38.864	2682.9999999999
38.872	2574
38.88	2459
38.888	2340
38.896	2217
38.904	2095
38.912	1976
38.92	1861
38.928	1753
38.936	1654
38.944	1565
38.952	1490
38.96	1427
38.968	1377
38.976	1341
38.984	1319
38.992	1308
39	1307
39.008	1317
39.016	1333
39.024	1354
39.032	1378.00000000002
39.04	1404
39.048	1429
39.056	1453
39.064	1475
39.072	1492
39.08	1502
39.088	1507
39.096	1510
39.104	1508
39.112	1500
39.12	1490
39.128	1480
39.136	1467
39.144	1451
39.152	1433
39.16	1414.99999999998
39.168	1397
39.176	1377
39.184	1357
39.192	1339
39.2	1322
39.208	1305
39.216	1290
39.224	1273.99999999999
39.232	1258
39.24	1243
39.248	1229
39.256	1216
39.264	1203
39.272	1191
39.28	1178
39.288	1163.99999999999
39.296	1151
39.304	1139
39.312	1127
39.32	1116
39.328	1105
39.336	1093
39.344	1081
39.352	1068.99999999999
39.36	1056
39.368	1047
39.376	1045
39.384	1055
39.392	1087
39.4	1152
39.408	1247
39.416	1372.00000000013
39.424	1534
39.432	1730
39.44	1949
39.448	2178
39.456	2407
39.464	2622
39.472	2814
39.48	2979.00000000013
39.488	3108
39.496	3192
39.504	3239
39.512	3258
39.52	3244
39.528	3203
39.536	3145
39.544	3073.99999999993
39.552	2990
39.56	2897
39.568	2799
39.576	2695
39.584	2584
39.592	2467
39.6	2347
39.608	2223.99999999989
39.616	2099
39.624	1979
39.632	1864
39.64	1753
39.648	1652
39.656	1562
39.664	1483
39.672	1417.99999999995
39.68	1367
39.688	1331
39.696	1308
39.704	1295
39.712	1294
39.72	1303
39.728	1320
39.736	1341.00000000002
39.744	1367
39.752	1394
39.76	1420
39.768	1445
39.776	1467
39.784	1483
39.792	1494
39.8	1501
39.808	1504
39.816	1502
39.824	1497
39.832	1489
39.84	1477
39.848	1463
39.856	1448
39.864	1429.99999999998
39.872	1411
39.88	1392
39.888	1371
39.896	1351
39.904	1332
39.912	1313
39.92	1295
39.928	1277.99999999999
39.936	1262
39.944	1248
39.952	1235
39.96	1223
39.968	1211
39.976	1199
39.984	1187
39.992	1174
40	1160
40.008	1147
40.016	1135
40.024	1124
40.032	1112.99999999999
40.04	1102
40.048	1090
40.056	1077
40.064	1064
40.072	1051
40.08	1040
40.088	1034
40.096	1041.00000000001
40.104	1072
40.112	1125
40.12	1206
40.128	1325
40.136	1485
40.144	1676
40.152	1889
40.16	2120.00000000021
40.168	2351
40.176	2575
40.184	2781
40.192	2955
40.2	3088
40.208	3184
40.216	3246
40.224	3270
40.232	3259
40.24	3224
40.248	3170
40.256	3099
40.264	3017
40.272	2926
40.28	2828
40.288	2723.9999999999
40.296	2614
40.304	2500
40.312	2383
40.32	2262
40.328	2139
40.336	2017
40.344	1898
40.352	1785.99999999991
40.36	1684
40.368	1592
40.376	1511
40.384	1444
40.392	1392
40.4	1354
40.408	1327
40.416	1311.99999999999
40.424	1308
40.432	1315
40.44	1331
40.448	1353
40.456	1378
40.464	1404
40.472	1431
40.48	1458.00000000002
40.488	1480
40.496	1497
40.504	1510
40.512	1517
40.52	1519
40.528	1517
40.536	1511
40.544	1500.99999999999
40.552	1489
40.56	1475
40.568	1459
40.576	1442
40.584	1424
40.592	1405
40.6	1386
40.608	1366.99999999998
40.616	1349
40.624	1331
40.632	1314
40.64	1299
40.648	1285
40.656	1271
40.664	1258
40.672	1242.99999999999
40.68	1229
40.688	1216
40.696	1203
40.704	1192
40.712	1181
40.72	1171
40.728	1161
40.736	1150.99999999999
40.744	1141
40.752	1130
40.76	1118
40.768	1106
40.776	1094
40.784	1082
40.792	1071
40.8	1065
40.808	1072
40.816	1092
40.824	1132
40.832	1205
40.84	1319
40.848	1467
40.856	1644
40.864	1851.00000000019
40.872	2076
40.88	2307
40.888	2534
40.896	2743
40.904	2921
40.912	3066
40.92	3178
40.928	3250.00000000004
40.936	3280
40.944	3279
40.952	3255
40.96	3206
40.968	3138
40.976	3058
40.984	2971
40.992	2878
41	2776
41.008	2668
41.016	2556
41.024	2439
41.032	2318.99999999989
41.04	2198
41.048	2077
41.056	1958
41.064	1843
41.072	1736
41.08	1638
41.088	1552
41.096	1480.99999999994
41.104	1424
41.112	1377
41.12	1344
41.128	1325
41.136	1319
41.144	1323
41.152	1336
41.16	1355.00000000002
41.168	1378
41.176	1403
41.184	1430
41.192	1453
41.2	1474
41.208	1492
41.216	1506
41.224	1514
41.232	1518
41.24	1519
41.248	1516
41.256	1508
41.264	1497
41.272	1485
41.28	1471
41.288	1454.99999999998
41.296	1437
41.304	1418
41.312	1397
41.32	1376
41.328	1355
41.336	1336
41.344	1318
41.352	1300.99999999999
41.36	1286
41.368	1270
41.376	1254
41.384	1240
41.392	1226
41.4	1212
41.408	1198
41.416	1182.99999999999
41.424	1170
41.432	1157
41.44	1145
41.448	1134
41.456	1122
41.464	1111
41.472	1101
41.48	1089.99999999999
41.488	1078
41.496	1066
41.504	1054
41.512	1046
41.52	1043
41.528	1051
41.536	1080
41.544	1141.00000000007
41.552	1234
41.56	1357
41.568	1518
41.576	1712
41.584	1929
41.592	2156
41.6	2384
41.608	2598.00000000018
41.616	2792
41.624	2960
41.632	3090
41.64	3176
41.648	3226
41.656	3247
41.664	3237
41.672	3199.99999999996
41.68	3143
41.688	3074
41.696	2993
41.704	2903
41.712	2806
41.72	2702
41.728	2591
41.736	2473.99999999989
41.744	2353
41.752	2232
41.76	2109
41.768	1988
41.776	1871
41.784	1761
41.792	1659
41.8	1568.99999999993
41.808	1490
41.816	1422
41.824	1369
41.832	1332
41.84	1307
41.848	1293
41.856	1291
41.864	1300.00000000001
41.872	1315
41.88	1336
41.888	1361
41.896	1387
41.904	1412
41.912	1435
41.92	1456
41.928	1470.00000000001
41.936	1479
41.944	1485
41.952	1486
41.96	1482
41.968	1474
41.976	1464
41.984	1452
41.992	1438
42	1423
42.008	1408
42.016	1391
42.024	1373
42.032	1354.99999999998
42.04	1338
42.048	1320
42.056	1301
42.064	1283
42.072	1265
42.08	1248
42.088	1232
42.096	1216.99999999999
42.104	1204
42.112	1190
42.12	1176
42.128	1163
42.136	1151
42.144	1139
42.152	1127
42.16	1114.99999999999
42.168	1102
42.176	1088
42.184	1076
42.192	1065
42.2	1053
42.208	1039
42.216	1025
42.224	1010.99999999999
42.232	1000
42.24	997
42.248	1011
42.256	1042
42.264	1094
42.272	1181
42.28	1311
42.288	1475.00000000016
42.296	1665
42.304	1880
42.312	2106
42.32	2334
42.328	2553
42.336	2750
42.344	2909
42.352	3034.00000000009
42.36	3127
42.368	3181
42.376	3195
42.384	3180
42.392	3144
42.4	3088
42.408	3015
42.416	2930.99999999992
42.424	2841
42.432	2744
42.44	2638
42.448	2527
42.456	2414
42.464	2295
42.472	2172
42.48	2046.99999999989
42.488	1924
42.496	1805
42.504	1696
42.512	1596
42.52	1506
42.528	1429
42.536	1368
42.544	1318.99999999996
42.552	1282
42.56	1258
42.568	1248
42.576	1249
42.584	1259
42.592	1277
42.6	1300
42.608	1326.00000000002
42.616	1354
42.624	1381
42.632	1405
42.64	1425
42.648	1441
42.656	1453
42.664	1460
42.672	1462
42.68	1462
42.688	1458
42.696	1450
42.704	1440
42.712	1428
42.72	1413
42.728	1396
42.736	1377.99999999998
42.744	1359
42.752	1340
42.76	1321
42.768	1303
42.776	1285
42.784	1268
42.792	1251
42.8	1233.99999999999
42.808	1218
42.816	1203
42.824	1189
42.832	1176
42.84	1163
42.848	1151
42.856	1139
42.864	1126.99999999999
42.872	1116
42.88	1105
42.888	1094
42.896	1083
42.904	1073
42.912	1063
42.92	1053
42.928	1042.99999999999
42.936	1032
42.944	1021
42.952	1017
42.96	1019
42.968	1033
42.976	1070
42.984	1141
42.992	1245.0000000001
43	1379
43.008	1549
43.016	1749
43.024	1968
43.032	2194.0000000002
43.04	2416
43.048	2618
43.056	2797
43.064	2949
43.072	3063
43.08	3135
43.088	3173
43.096	3183
43.104	3162
43.112	3114
43.12	3049
43.128	2973
43.136	2887
43.144	2792
43.152	2691
43.16	2586.9999999999
43.168	2476
43.176	2358
43.184	2237
43.192	2116
43.2	1994
43.208	1875
43.216	1762
43.224	1654.99999999991
43.232	1558
43.24	1474
43.248	1403
43.256	1344
43.264	1298
43.272	1269
43.28	1253
43.288	1246
43.296	1250
43.304	1264
43.312	1285
43.32	1311
43.328	1340
43.336	1368
43.344	1395
43.352	1420.00000000002
43.36	1440
43.368	1455
43.376	1465
43.384	1471
43.392	1472
43.4	1468
43.408	1461
43.416	1450.99999999999
43.424	1439
43.432	1425
43.44	1409
43.448	1392
43.456	1373
43.464	1354
43.472	1334
43.48	1314.99999999998
43.488	1297
43.496	1279
43.504	1262
43.512	1245
43.52	1229
43.528	1213
43.536	1198
43.544	1183.99999999999
43.552	1171
43.56	1159
43.568	1147
43.576	1136
43.584	1124
43.592	1112
43.6	1102
43.608	1091.99999999999
43.616	1081
43.624	1071
43.632	1061
43.64	1050
43.648	1037
43.656	1025
43.664	1016
43.672	1012
43.68	1020
43.688	1053
43.696	1111
43.704	1195
43.712	1317
43.72	1480
43.728	1672
43.736	1883.00000000019
43.744	2109
43.752	2333
43.76	2548
43.768	2745
43.776	2912
43.784	3037
43.792	3126
43.8	3183.00000000003
43.808	3204
43.816	3191
43.824	3155
43.832	3101
43.84	3031
43.848	2949
43.856	2858
43.864	2760.99999999991
43.872	2659
43.88	2549
43.888	2434
43.896	2315
43.904	2193
43.912	2071
43.92	1950
43.928	1830.9999999999
43.936	1720
43.944	1619
43.952	1528
43.96	1447
43.968	1380
43.976	1328
43.984	1290
43.992	1263.99999999999
44	1252
44.008	1253
44.016	1265
44.024	1283
44.032	1306.00000000002
44.04	1332
44.048	1360
44.056	1388
44.064	1413
44.072	1434
44.08	1451
44.088	1465
44.096	1473
44.104	1475
44.112	1473
44.12	1467
44.128	1458
44.136	1445
44.144	1429
44.152	1413
44.16	1395.99999999998
44.168	1376
44.176	1355
44.184	1335
44.192	1316
44.2	1297
44.208	1279
44.216	1261
44.224	1242.99999999998
44.232	1226
44.24	1210
44.248	1195
44.256	1182
44.264	1169
44.272	1157
44.28	1146
44.288	1134.99999999999
44.296	1124
44.304	1110
44.312	1097
44.32	1087
44.328	1077
44.336	1067
44.344	1057
44.352	1044.99999999999
44.36	1032
44.368	1018
44.376	1006
44.384	1000
44.392	1006
44.4	1027
44.408	1069
44.416	1142.00000000008
44.424	1254
44.432	1399
44.44	1573
44.448	1776
44.456	1996
44.464	2223
44.472	2444
44.48	2646.00000000016
44.488	2817
44.496	2958
44.504	3066
44.512	3135
44.52	3166
44.528	3166
44.536	3143
44.544	3097.99999999995
44.552	3034
44.56	2957
44.568	2873
44.576	2781
44.584	2681
44.592	2576
44.6	2466
44.608	2350.9999999999
44.616	2232
44.624	2110
44.632	1990
44.64	1873
44.648	1762
44.656	1658
44.664	1562
44.672	1477.99999999993
44.68	1409
44.688	1352
44.696	1307
44.704	1277
44.712	1261
44.72	1257
44.728	1262
44.736	1275.00000000001
44.744	1295
44.752	1320
44.76	1347
44.768	1374
44.776	1397
44.784	1418
44.792	1436
44.8	1449.00000000001
44.808	1456
44.816	1458
44.824	1458
44.832	1454
44.84	1445
44.848	1435
44.856	1423
44.864	1407.99999999999
44.872	1391
44.88	1374
44.888	1356
44.896	1336
44.904	1315
44.912	1296
44.92	1277
44.928	1258.99999999998
44.936	1242
44.944	1225
44.952	1210
44.96	1196
44.968	1182
44.976	1169
44.984	1157
44.992	1143.99999999999
45	1130
45.008	1117
45.016	1106
45.024	1095
45.032	1084.99999999999
45.04	1075
45.048	1066
45.056	1056
45.064	1044
45.072	1031
45.08	1019
45.088	1007
45.096	998.999999999998
45.104	998
45.112	1008
45.12	1039
45.128	1103
45.136	1198
45.144	1321
45.152	1480
45.16	1671.00000000018
45.168	1885
45.176	2109
45.184	2332
45.192	2538
45.2	2724
45.208	2883
45.216	3005
45.224	3085.00000000005
45.232	3130
45.24	3147
45.248	3134
45.256	3095
45.264	3039
45.272	2970
45.28	2889
45.288	2799.99999999992
45.296	2704
45.304	2603
45.312	2497
45.32	2384
45.328	2267
45.336	2150
45.344	2031
45.352	1913.9999999999
45.36	1800
45.368	1692
45.376	1594
45.384	1508
45.392	1432
45.4	1367
45.408	1317
45.416	1281.99999999997
45.424	1258
45.432	1245
45.44	1246
45.448	1257
45.456	1276
45.464	1299
45.472	1325
45.48	1352.00000000002
45.488	1379
45.496	1404
45.504	1424
45.512	1439
45.52	1450
45.528	1457
45.536	1459
45.544	1455
45.552	1448
45.56	1438
45.568	1425
45.576	1410
45.584	1393
45.592	1376
45.6	1358
45.608	1338.99999999998
45.616	1320
45.624	1301
45.632	1282
45.64	1263
45.648	1246
45.656	1229
45.664	1213
45.672	1197.99999999999
45.68	1184
45.688	1170
45.696	1156
45.704	1143
45.712	1131
45.72	1119
45.728	1107
45.736	1095.99999999999
45.744	1084
45.752	1072
45.76	1062
45.768	1052
45.776	1042
45.784	1031
45.792	1019
45.8	1007.99999999999
45.808	997
45.816	989
45.824	989
45.832	1007
45.84	1044
45.848	1104
45.856	1199
45.864	1335.00000000013
45.872	1504
45.88	1697
45.888	1912
45.896	2133
45.904	2352
45.912	2558
45.92	2739
45.928	2884.00000000011
45.936	2995
45.944	3074
45.952	3114
45.96	3119
45.968	3099
45.976	3059
45.984	3000
45.992	2925.99999999993
46	2842
46.008	2753
46.016	2660
46.024	2559
46.032	2452.9999999999
46.04	2343
46.048	2227
46.056	2107.99999999989
46.064	1989
46.072	1874
46.08	1763
46.088	1660
46.096	1564.99999999992
46.104	1480
46.112	1407
46.12	1349
46.128	1304
46.136	1271
46.144	1251
46.152	1244
46.16	1249.00000000001
46.168	1263
46.176	1281
46.184	1302
46.192	1326
46.2	1351
46.208	1376
46.216	1398
46.224	1418.00000000002
46.232	1435
46.24	1446
46.248	1451
46.256	1453
46.264	1450
46.272	1443
46.28	1433
46.288	1419.99999999999
46.296	1406
46.304	1391
46.312	1374
46.32	1355
46.328	1337
46.336	1318
46.344	1299
46.352	1281.99999999998
46.36	1265
46.368	1250
46.376	1235
46.384	1221
46.392	1207
46.4	1193
46.408	1181
46.416	1169.99999999999
46.424	1159
46.432	1149
46.44	1139
46.448	1129
46.456	1119
46.464	1109
46.472	1098
46.48	1086.99999999999
46.488	1077
46.496	1066
46.504	1054
46.512	1042
46.52	1029
46.528	1018
46.536	1015
46.544	1021.00000000001
46.552	1039
46.56	1080
46.568	1155
46.576	1264
46.584	1402
46.592	1575
46.6	1777
46.608	1994.00000000019
46.616	2215
46.624	2432
46.632	2626
46.64	2793
46.648	2932
46.656	3033
46.664	3093
46.672	3119
46.68	3120
46.688	3095
46.696	3047
46.704	2983
46.712	2910
46.72	2827
46.728	2736
46.736	2638.99999999991
46.744	2539
46.752	2435
46.76	2326
46.768	2212
46.776	2098
46.784	1985
46.792	1874
46.8	1765.99999999991
46.808	1665
46.816	1574
46.824	1495
46.832	1429
46.84	1374
46.848	1333
46.856	1307
46.864	1290.99999999999
46.872	1286
46.88	1291
46.888	1305
46.896	1325
46.904	1348
46.912	1373
46.92	1398
46.928	1421.00000000002
46.936	1442
46.944	1458
46.952	1470
46.96	1478
46.968	1483
46.976	1484
46.984	1479
46.992	1471.99999999999
47	1463
47.008	1451
47.016	1436
47.024	1419
47.032	1400.99999999998
47.04	1382
47.048	1362
47.056	1342.99999999998
47.064	1326
47.072	1309
47.08	1292
47.088	1274
47.096	1256.99999999999
47.104	1242
47.112	1228
47.12	1215
47.128	1203
47.136	1191
47.144	1179
47.152	1167
47.16	1154.99999999999
47.168	1143
47.176	1131
47.184	1119
47.192	1107
47.2	1097
47.208	1087
47.216	1076
47.224	1064.99999999999
47.232	1053
47.24	1041
47.248	1031
47.256	1025
47.264	1030
47.272	1056
47.28	1104
47.288	1177.00000000008
47.296	1286
47.304	1433
47.312	1610
47.32	1807
47.328	2022
47.336	2238
47.344	2447
47.352	2641.00000000016
47.36	2806
47.368	2932
47.376	3025
47.384	3088
47.392	3114
47.4	3108
47.408	3078
47.416	3030.99999999995
47.424	2969
47.432	2893
47.44	2808
47.448	2718
47.456	2623
47.464	2522
47.472	2416
47.48	2306.9999999999
47.488	2194
47.496	2078
47.504	1963
47.512	1851
47.52	1696
47.528	1603
47.536	1518
47.544	1385.99999999994
47.552	1342
47.56	1309
47.568	1278
47.576	1280
47.584	1291
47.592	1330
47.6	1354
47.608	1379.00000000003
47.616	1415
47.624	1435
47.632	1451
47.64	1463
47.648	1471
47.656	1474
47.664	1472
47.672	1466.99999999999
47.68	1459
47.688	1448
47.696	1434
47.704	1418
47.712	1401
47.72	1384
47.728	1366
47.736	1348.99999999998
47.744	1331
47.752	1312
47.76	1294
47.768	1277
47.776	1262
47.784	1247
47.792	1233
47.8	1219.99999999999
47.808	1207
47.816	1195
47.824	1182
47.832	1168
47.84	1154
47.848	1141
47.856	1130
47.864	1117.99999999999
47.872	1107
47.88	1097
47.888	1087
47.896	1077
47.904	1066
47.912	1053
47.92	1039
47.928	1024.99999999999
47.936	1012
47.944	1004
47.952	1004
47.96	1015
47.968	1048
47.976	1115
47.984	1215
47.992	1345.00000000013
48	1511
48.008	1706
48.016	1919
48.024	2141
48.032	2359.00000000018
48.04	2557
48.048	2731
48.056	2878.00000000011
48.064	2988
48.072	3056
48.08	3090
48.088	3098
48.096	3077.99999999998
48.104	3034
48.112	2974
48.12	2903.99999999993
48.128	2824
48.136	2735
48.144	2641
48.152	2542
48.16	2436.9999999999
48.168	2326
48.176	2209
48.184	2092
48.192	1974
48.2	1858
48.208	1748
48.216	1645
48.224	1550.99999999992
48.232	1469
48.24	1398
48.248	1338
48.256	1293
48.264	1264
48.272	1247
48.28	1240
48.288	1243
48.296	1256
48.304	1275
48.312	1299
48.32	1325
48.328	1352
48.336	1378
48.344	1402
48.352	1422.00000000002
48.36	1437
48.368	1448
48.376	1454
48.384	1456
48.392	1452
48.4	1444
48.408	1435
48.416	1423.99999999999
48.424	1410
48.432	1394
48.44	1376
48.448	1358
48.456	1340
48.464	1321
48.472	1303
48.48	1285.99999999998
48.488	1269
48.496	1253
48.504	1238
48.512	1223
48.52	1208
48.528	1194
48.536	1182
48.544	1169.99999999999
48.552	1158
48.56	1146
48.568	1135
48.576	1125
48.584	1114
48.592	1102
48.6	1090
48.608	1078.99999999999
48.616	1070
48.624	1060
48.632	1050
48.64	1040
48.648	1030
48.656	1020
48.664	1011
48.672	1008
48.68	1018
48.688	1043
48.696	1088
48.704	1164
48.712	1279
48.72	1427
48.728	1600
48.736	1799.00000000018
48.744	2014
48.752	2232
48.76	2442
48.768	2632
48.776	2790
48.784	2917
48.792	3014
48.8	3071.00000000003
48.808	3091
48.816	3084
48.824	3055
48.832	3005
48.84	2939
48.848	2862
48.856	2777
48.864	2685.99999999992
48.872	2588
48.88	2486
48.888	2381
48.896	2271
48.904	2156
48.912	2039
48.92	1924
48.928	1810.9999999999
48.936	1705
48.944	1607
48.952	1518
48.96	1440
48.968	1377
48.976	1328
48.984	1290
48.992	1264.99999999999
49	1254
49.008	1254
49.016	1262
49.024	1278
49.032	1300.00000000002
49.04	1326
49.048	1355
49.056	1383.00000000002
49.064	1407
49.072	1429
49.08	1447
49.088	1459
49.096	1466
49.104	1469
49.112	1469
49.12	1463.99999999999
49.128	1455
49.136	1445
49.144	1433
49.152	1419
49.16	1402.99999999999
49.168	1386
49.176	1368
49.184	1349
49.192	1330
49.2	1310
49.208	1291
49.216	1275
49.224	1259.99999999999
49.232	1245
49.24	1232
49.248	1219
49.256	1208
49.264	1196
49.272	1183
49.28	1172
49.288	1160.99999999999
49.296	1150
49.304	1139
49.312	1129
49.32	1119
49.328	1110
49.336	1100
49.344	1089
49.352	1078.99999999999
49.36	1070
49.368	1060
49.376	1050
49.384	1041
49.392	1035
49.4	1036
49.408	1051
49.416	1092.00000000005
49.424	1158
49.432	1252
49.44	1382
49.448	1549
49.456	1744
49.464	1953
49.472	2171
49.48	2383.00000000018
49.488	2582
49.496	2759
49.504	2903
49.512	3007
49.52	3076
49.528	3115
49.536	3122
49.544	3098.99999999997
49.552	3056
49.56	2999
49.568	2930
49.576	2848
49.584	2759
49.592	2666
49.6	2566
49.608	2459.9999999999
49.616	2350
49.624	2238
49.632	2123
49.64	2008
49.648	1894
49.656	1784
49.664	1682
49.672	1590.99999999992
49.68	1511
49.688	1441
49.696	1383
49.704	1341
49.712	1312
49.72	1292
49.728	1286
49.736	1293.00000000001
49.744	1308
49.752	1327
49.76	1352
49.768	1378
49.776	1403
49.784	1427
49.792	1449
49.8	1467.00000000001
49.808	1480
49.816	1489
49.824	1494
49.832	1493
49.84	1489
49.848	1482
49.856	1471
49.864	1457.99999999999
49.872	1443
49.88	1427
49.888	1410
49.896	1392
49.904	1373
49.912	1354
49.92	1335
49.928	1316.99999999998
49.936	1299
49.944	1283
49.952	1268
49.96	1253
49.968	1240
49.976	1227
49.984	1216
49.992	1203.99999999999
50	1191
50.008	1180
50.016	1169
50.024	1158
50.032	1146.99999999999
50.04	1137
50.048	1127
50.056	1116.99999999999
50.064	1107
50.072	1098
50.08	1088
50.088	1076
50.096	1063.99999999999
50.104	1053
50.112	1045
50.12	1047
50.128	1060
50.136	1089
50.144	1146
50.152	1239
50.16	1365.00000000012
50.168	1519
50.176	1705
50.184	1912
50.192	2129
50.2	2347
50.208	2552
50.216	2729
50.224	2880.00000000012
50.232	3002
50.24	3085
50.248	3128
50.256	3140
50.264	3129
50.272	3094
50.28	3038
50.288	2968.99999999994
50.296	2892
50.304	2806
50.312	2712
50.32	2612
50.328	2508
50.336	2399
50.344	2286
50.352	2170.9999999999
50.36	2056
50.368	1940
50.376	1830
50.384	1727
50.392	1632
50.4	1546
50.408	1472
50.416	1410.99999999995
50.424	1363
50.432	1328
50.44	1308
50.448	1300
50.456	1301
50.464	1312
50.472	1329
50.48	1352.00000000002
50.488	1377
50.496	1403
50.504	1427
50.512	1450
50.52	1470
50.528	1485
50.536	1495
50.544	1500
50.552	1501
50.56	1499
50.568	1493
50.576	1484
50.584	1472
50.592	1458
50.6	1442
50.608	1424.99999999998
50.616	1408
50.624	1389
50.632	1370
50.64	1350
50.648	1331
50.656	1314
50.664	1296
50.672	1278.99999999999
50.68	1265
50.688	1251
50.696	1236
50.704	1222
50.712	1210
50.72	1198
50.728	1187
50.736	1176.99999999999
50.744	1167
50.752	1157
50.76	1146
50.768	1135
50.776	1125
50.784	1115
50.792	1105
50.8	1094.99999999999
50.808	1085
50.816	1074
50.824	1063
50.832	1054
50.84	1049
50.848	1056
50.856	1086
50.864	1139.00000000006
50.872	1219
50.88	1336
50.888	1491
50.896	1676
50.904	1880
50.912	2100
50.92	2319
50.928	2529.00000000018
50.936	2720
50.944	2880
50.952	3001
50.96	3087
50.968	3143
50.976	3165
50.984	3153
50.992	3116.99999999996
51	3066
51.008	3000
51.016	2922
51.024	2837
51.032	2746.99999999992
51.04	2650
51.048	2546
51.056	2437.9999999999
51.064	2328
51.072	2213
51.08	2095
51.088	1978
51.096	1864.9999999999
51.104	1758
51.112	1659
51.12	1570.99999999993
51.128	1493
51.136	1428
51.144	1378
51.152	1341
51.16	1315.99999999998
51.168	1302
51.176	1300
51.184	1309.00000000001
51.192	1325
51.2	1346
51.208	1369
51.216	1395
51.224	1422.00000000002
51.232	1445
51.24	1464
51.248	1480
51.256	1493
51.264	1501
51.272	1504
51.28	1502
51.288	1495.99999999999
51.296	1487
51.304	1476
51.312	1462
51.32	1446
51.328	1428
51.336	1409
51.344	1391
51.352	1371.99999999998
51.36	1351
51.368	1332
51.376	1314
51.384	1297
51.392	1281
51.4	1266
51.408	1252
51.416	1237.99999999999
51.424	1225
51.432	1213
51.44	1201
51.448	1190
51.456	1177
51.464	1164
51.472	1152
51.48	1141.99999999999
51.488	1132
51.496	1121
51.504	1111
51.512	1102
51.52	1092
51.528	1081
51.536	1070
51.544	1057.99999999999
51.552	1047
51.56	1044
51.568	1050
51.576	1070
51.584	1115
51.592	1197
51.6	1311
51.608	1454.00000000014
51.616	1630
51.624	1832
51.632	2050
51.64	2271
51.648	2485
51.656	2676
51.664	2840
51.672	2976.0000000001
51.68	3074
51.688	3131
51.696	3157
51.704	3157
51.712	3129
51.72	3079
51.728	3015
51.736	2940.99999999993
51.744	2857
51.752	2765
51.76	2668
51.768	2567
51.776	2461
51.784	2348
51.792	2231
51.8	2113.9999999999
51.808	1997
51.816	1885
51.824	1777
51.832	1676
51.84	1585
51.848	1506
51.856	1438
51.864	1381.99999999996
51.872	1340
51.88	1314
51.888	1300
51.896	1295
51.904	1301
51.912	1315
51.92	1336
51.928	1360.00000000002
51.936	1385
51.944	1410
51.952	1433
51.96	1455
51.968	1472
51.976	1483
51.984	1490
51.992	1493
52	1493
52.008	1487
52.016	1478
52.024	1467
52.032	1453.99999999999
52.04	1438
52.048	1421
52.056	1402.99999999998
52.064	1384
52.072	1364
52.08	1344
52.088	1326
52.096	1307.99999999998
52.104	1290
52.112	1274
52.12	1258.99999999999
52.128	1245
52.136	1231
52.144	1218
52.152	1206
52.16	1193.99999999999
52.168	1183
52.176	1174
52.184	1162.99999999999
52.192	1151
52.2	1139
52.208	1128
52.216	1117
52.224	1105.99999999999
52.232	1095
52.24	1085
52.248	1075
52.256	1065
52.264	1054
52.272	1043
52.28	1037
52.288	1040
52.296	1063
52.304	1108
52.312	1177
52.32	1283
52.328	1429
52.336	1606
52.344	1803
52.352	2019.00000000019
52.36	2240
52.368	2456
52.376	2657
52.384	2830
52.392	2965
52.4	3068
52.408	3139
52.416	3173
52.424	3173
52.432	3148
52.44	3104
52.448	3043
52.456	2967
52.464	2882
52.472	2792
52.48	2695.99999999991
52.488	2593
52.496	2486
52.504	2376
52.512	2262
52.52	2145
52.528	2028
52.536	1912
52.544	1800.99999999991
52.552	1699
52.56	1604
52.568	1519
52.576	1450
52.584	1395
52.592	1353
52.6	1322
52.608	1303.99999999999
52.616	1300
52.624	1306
52.632	1319
52.64	1339
52.648	1363
52.656	1390
52.664	1417
52.672	1443.00000000002
52.68	1466
52.688	1483
52.696	1496
52.704	1504
52.712	1507
52.72	1507
52.728	1505
52.736	1498.99999999999
52.744	1488
52.752	1474
52.76	1459
52.768	1443
52.776	1425
52.784	1406
52.792	1386
52.8	1366.99999999998
52.808	1349
52.816	1330
52.824	1311
52.832	1294
52.84	1278
52.848	1264
52.856	1251
52.864	1237.99999999999
52.872	1224
52.88	1212
52.888	1200
52.896	1187
52.904	1175
52.912	1164
52.92	1153
52.928	1142.99999999999
52.936	1133
52.944	1123
52.952	1113
52.96	1103
52.968	1093
52.976	1082
52.984	1071
52.992	1061.99999999999
53	1055
53.008	1054
53.016	1063
53.024	1094
53.032	1159.00000000007
53.04	1255
53.048	1379
53.056	1540.00000000016
53.064	1733
53.072	1946
53.08	2166
53.088	2385
53.096	2587.00000000017
53.104	2767
53.112	2921
53.12	3038.00000000008
53.128	3113
53.136	3155
53.144	3170
53.152	3155
53.16	3114.99999999996
53.168	3057
53.176	2987
53.184	2906.99999999993
53.192	2819
53.2	2726
53.208	2628
53.216	2524
53.224	2414.9999999999
53.232	2303
53.24	2188
53.248	2070.9999999999
53.256	1956
53.264	1844
53.272	1738
53.28	1641
53.288	1556.99999999993
53.296	1483
53.304	1420
53.312	1371
53.32	1337
53.328	1315
53.336	1304
53.344	1303
53.352	1312.00000000001
53.36	1329
53.368	1351
53.376	1376
53.384	1401
53.392	1425
53.4	1448
53.408	1467
53.416	1481.00000000001
53.424	1490
53.432	1494
53.44	1494
53.448	1490
53.456	1482
53.464	1471
53.472	1459
53.48	1444.99999999999
53.488	1428
53.496	1410
53.504	1392
53.512	1372
53.52	1352
53.528	1333
53.536	1315
53.544	1297.99999999998
53.552	1281
53.56	1266
53.568	1251
53.576	1236
53.584	1221
53.592	1209
53.6	1198
53.608	1185.99999999999
53.616	1174
53.624	1162
53.632	1150
53.64	1139
53.648	1129
53.656	1118
53.664	1107
53.672	1097.99999999999
53.68	1088
53.688	1078
53.696	1068
53.704	1058
53.712	1048
53.72	1039
53.728	1036
53.736	1048.00000000002
53.744	1077
53.752	1127
53.76	1210
53.768	1333
53.776	1490
53.784	1671
53.792	1876
53.8	2092.00000000019
53.808	2310
53.816	2519
53.824	2706
53.832	2856
53.84	2974
53.848	3062
53.856	3112
53.864	3125
53.872	3110
53.88	3075
53.888	3022
53.896	2952
53.904	2872
53.912	2786
53.92	2693
53.928	2592.99999999991
53.936	2489
53.944	2382
53.952	2269
53.96	2152
53.968	2034
53.976	1918
53.984	1804
53.992	1697.99999999991
54	1601
54.008	1514
54.016	1438
54.024	1377
54.032	1329.99999999996
54.04	1294
54.048	1271
54.056	1261
54.064	1262
54.072	1271
54.08	1289
54.088	1312
54.096	1338.00000000002
54.104	1365
54.112	1392
54.12	1415.00000000002
54.128	1434
54.136	1449
54.144	1460
54.152	1465
54.16	1467
54.168	1465
54.176	1459
54.184	1449.99999999999
54.192	1437
54.2	1423
54.208	1407
54.216	1388
54.224	1366.99999999998
54.232	1347
54.24	1326
54.248	1304.99999999998
54.256	1286
54.264	1266
54.272	1248
54.28	1232
54.288	1216.99999999999
54.296	1203
54.304	1189
54.312	1176
54.32	1164
54.328	1154
54.336	1144
54.344	1133
54.352	1122.99999999999
54.36	1114
54.368	1104
54.376	1093
54.384	1083
54.392	1074
54.4	1065
54.408	1056
54.416	1044.99999999999
54.424	1034
54.432	1023
54.44	1014
54.448	1007
54.456	1008
54.464	1024
54.472	1068
54.48	1137.00000000007
54.488	1233
54.496	1366
54.504	1535
54.512	1730
54.52	1940
54.528	2159
54.536	2371
54.544	2569.00000000017
54.552	2745
54.56	2887
54.568	2989
54.576	3057
54.584	3095
54.592	3100
54.6	3075
54.608	3029.99999999995
54.616	2971
54.624	2900
54.632	2817
54.64	2728
54.648	2634
54.656	2534
54.664	2427
54.672	2315.9999999999
54.68	2203
54.688	2089
54.696	1974
54.704	1860
54.712	1751
54.72	1650
54.728	1559
54.736	1478.99999999993
54.744	1410
54.752	1353
54.76	1311
54.768	1283
54.776	1266
54.784	1260
54.792	1266
54.8	1281.00000000002
54.808	1303
54.816	1329
54.824	1355
54.832	1381
54.84	1406
54.848	1427
54.856	1445
54.864	1458.00000000001
54.872	1466
54.88	1470
54.888	1469
54.896	1465
54.904	1458
54.912	1446
54.92	1431
54.928	1415.99999999999
54.936	1400
54.944	1383
54.952	1364
54.96	1344
54.968	1326
54.976	1309
54.984	1292
54.992	1273.99999999998
55	1257
55.008	1241
55.016	1226
55.024	1212
55.032	1198.99999999999
55.04	1187
55.048	1176
55.056	1164.99999999999
55.064	1155
55.072	1145
55.08	1135
55.088	1126
55.096	1116.99999999999
55.104	1108
55.112	1098
55.12	1088.99999999999
55.128	1080
55.136	1069
55.144	1059
55.152	1049
55.16	1037.99999999999
55.168	1028
55.176	1027
55.184	1037.00000000001
55.192	1061
55.2	1111
55.208	1197
55.216	1314
55.224	1460.00000000014
55.232	1640
55.24	1844
55.248	2061.00000000019
55.256	2280
55.264	2488
55.272	2671
55.28	2828
55.288	2956.00000000009
55.296	3047
55.304	3099
55.312	3118
55.32	3111
55.328	3079
55.336	3027
55.344	2962
55.352	2886.99999999993
55.36	2804
55.368	2712
55.376	2615
55.384	2515
55.392	2409
55.4	2297
55.408	2182
55.416	2064.9999999999
55.424	1949
55.432	1837
55.44	1730
55.448	1630
55.456	1541
55.464	1466
55.472	1402
55.48	1348.99999999996
55.488	1311
55.496	1288
55.504	1277
55.512	1277
55.52	1287
55.528	1304
55.536	1326
55.544	1352.00000000002
55.552	1380
55.56	1407
55.568	1432
55.576	1454
55.584	1471
55.592	1482
55.6	1488
55.608	1490
55.616	1488
55.624	1481
55.632	1470
55.64	1458
55.648	1445
55.656	1430
55.664	1411
55.672	1391.99999999998
55.68	1373
55.688	1354
55.696	1335
55.704	1318
55.712	1300
55.72	1282
55.728	1266
55.736	1251.99999999999
55.744	1238
55.752	1223
55.76	1210
55.768	1197
55.776	1185
55.784	1174
55.792	1163
55.8	1152.99999999999
55.808	1142
55.816	1130
55.824	1119
55.832	1110
55.84	1101
55.848	1093
55.856	1085
55.864	1075.99999999999
55.872	1065
55.88	1054
55.888	1043
55.896	1036
55.904	1037
55.912	1058
55.92	1099
55.928	1164.00000000007
55.936	1264
55.944	1406
55.952	1579
55.96	1773
55.968	1986
55.976	2204
55.984	2417
55.992	2616.00000000016
56	2788
56.008	2924
56.016	3027
56.024	3099
56.032	3134
56.04	3134
56.048	3109
56.056	3066.99999999996
56.064	3008
56.072	2935
56.08	2854
56.088	2766
56.096	2671.99999999991
56.104	2572
56.112	2467
56.12	2357.9999999999
56.128	2244
56.136	2128
56.144	2011
56.152	1897
56.16	1787.99999999991
56.168	1686
56.176	1593
56.184	1509.99999999993
56.192	1439
56.2	1385
56.208	1344
56.216	1313
56.224	1295.99999999999
56.232	1291
56.24	1296
56.248	1309.00000000001
56.256	1330
56.264	1354
56.272	1379
56.28	1404
56.288	1428.00000000002
56.296	1449
56.304	1466
56.312	1479.00000000001
56.32	1488
56.328	1491
56.336	1490
56.344	1485
56.352	1477.99999999999
56.36	1467
56.368	1453
56.376	1437
56.384	1420
56.392	1401
56.4	1382
56.408	1362
56.416	1341.99999999998
56.424	1322
56.432	1303
56.44	1286
56.448	1269
56.456	1254
56.464	1240
56.472	1227
56.48	1214.99999999999
56.488	1203
56.496	1191
56.504	1179
56.512	1167
56.52	1155
56.528	1145
56.536	1136
56.544	1125.99999999999
56.552	1116
56.56	1105
56.568	1095
56.576	1086
56.584	1076
56.592	1065
56.6	1055
56.608	1044.99999999999
56.616	1038
56.624	1037
56.632	1046
56.64	1073
56.648	1132
56.656	1220
56.664	1338
56.672	1493.00000000015
56.68	1681
56.688	1890
56.696	2108
56.704	2327
56.712	2531
56.72	2715
56.728	2875
56.736	2999.00000000009
56.744	3081
56.752	3129
56.76	3149
56.768	3138
56.776	3100
56.784	3045
56.792	2979
56.8	2900.99999999993
56.808	2814
56.816	2721
56.824	2624
56.832	2520
56.84	2411
56.848	2299
56.856	2185
56.864	2068.9999999999
56.872	1953
56.88	1841
56.888	1735
56.896	1637
56.904	1551
56.912	1476
56.92	1412
56.928	1361.99999999996
56.936	1326
56.944	1303
56.952	1291
56.96	1290
56.968	1300
56.976	1318
56.984	1340
56.992	1365.00000000002
57	1390
57.008	1413
57.016	1436
57.024	1455
57.032	1469.00000000001
57.04	1478
57.048	1482
57.056	1482
57.064	1478
57.072	1471
57.08	1462
57.088	1449
57.096	1433.99999999999
57.104	1417
57.112	1400
57.12	1379.99999999998
57.128	1359
57.136	1339
57.144	1320
57.152	1301
57.16	1282.99999999998
57.168	1267
57.176	1253
57.184	1238.99999999999
57.192	1225
57.2	1212
57.208	1199
57.216	1187
57.224	1174.99999999999
57.232	1163
57.24	1153
57.248	1143.99999999999
57.256	1133
57.264	1122
57.272	1111
57.28	1102
57.288	1091.99999999999
57.296	1082
57.304	1072
57.312	1060.99999999999
57.32	1050
57.328	1039
57.336	1029
57.344	1021
57.352	1024
57.36	1039
57.368	1073
57.376	1137
57.384	1239
57.392	1374
57.4	1536
57.408	1727
57.416	1938.00000000019
57.424	2158
57.432	2375
57.44	2576
57.448	2746
57.456	2888
57.464	3001
57.472	3076
57.48	3112.00000000001
57.488	3118
57.496	3101
57.504	3062
57.512	3004
57.52	2934
57.528	2857
57.536	2774
57.544	2681.99999999992
57.552	2583
57.56	2481
57.568	2374
57.576	2261
57.584	2147
57.592	2033
57.6	1919
57.608	1809.99999999991
57.616	1707
57.624	1612
57.632	1527
57.64	1456
57.648	1397
57.656	1351
57.664	1318
57.672	1297.99999999999
57.68	1290
57.688	1291
57.696	1301
57.704	1318
57.712	1339
57.72	1363
57.728	1388
57.736	1410.00000000002
57.744	1429
57.752	1446
57.76	1458
57.768	1464
57.776	1466
57.784	1466
57.792	1462
57.8	1453.99999999999
57.808	1443
57.816	1430
57.824	1415
57.832	1398
57.84	1379
57.848	1361
57.856	1342
57.864	1322.99999999998
57.872	1305
57.88	1287
57.888	1261
57.896	1245
57.904	1229
57.912	1201
57.92	1189
57.928	1176.99999999999
57.936	1156
57.944	1146
57.952	1135
57.96	1114
57.968	1104
57.976	1094
57.984	1081
57.992	1071.99999999999
58	1062
58.008	1052
58.016	1041
58.024	1030
58.032	1018.99999999999
58.04	1012
58.048	1012
58.056	1030.00000000002
58.064	1066
58.072	1124
58.08	1217
58.088	1351
58.096	1517.00000000016
58.104	1706
58.112	1916
58.12	2134.00000000019
58.128	2350
58.136	2554
58.144	2733
58.152	2876
58.16	2985.00000000008
58.168	3064
58.176	3105
58.184	3111
58.192	3091
58.2	3053
58.208	2997
58.216	2927
58.224	2847.99999999993
58.232	2762
58.24	2670
58.248	2571.99999999991
58.256	2470
58.264	2365
58.272	2255
58.28	2140
58.288	2023.9999999999
58.296	1911
58.304	1802
58.312	1698.99999999991
58.32	1605
58.328	1520
58.336	1447
58.344	1389
58.352	1343.99999999997
58.36	1311
58.368	1292
58.376	1286
58.384	1290
58.392	1301
58.4	1320
58.408	1343
58.416	1368.00000000002
58.424	1392
58.432	1416
58.44	1437
58.448	1455
58.456	1469
58.464	1478
58.472	1481
58.48	1480
58.488	1475
58.496	1467
58.504	1456
58.512	1441
58.52	1425
58.528	1409
58.536	1392
58.544	1371.99999999998
58.552	1352
58.56	1332
58.568	1311
58.576	1292
58.584	1274
58.592	1257
58.6	1242
58.608	1227.99999999999
58.616	1214
58.624	1201
58.632	1191
58.64	1182
58.648	1173
58.656	1164
58.664	1154
58.672	1144.99999999999
58.68	1137
58.688	1128
58.696	1118
58.704	1109
58.712	1101
58.72	1093
58.728	1084
58.736	1072.99999999999
58.744	1063
58.752	1053
58.76	1044
58.768	1038
58.776	1040
58.784	1058
58.792	1105
58.8	1179.00000000008
58.808	1279
58.816	1417
58.824	1592
58.832	1792
58.84	2006
58.848	2225
58.856	2434
58.864	2627.00000000016
58.872	2797
58.88	2931
58.888	3025
58.896	3087
58.904	3120
58.912	3120
58.92	3093
58.928	3046.99999999995
58.936	2988
58.944	2918
58.952	2839
58.96	2754
58.968	2664
58.976	2568
58.984	2465
58.992	2357.9999999999
59	2248
59.008	2135
59.016	2022
59.024	1909
59.032	1800.99999999991
59.04	1700
59.048	1608
59.056	1525.99999999993
59.064	1455
59.072	1398
59.08	1354
59.088	1324
59.096	1305.99999999999
59.104	1299
59.112	1303
59.12	1315.00000000001
59.128	1333
59.136	1355
59.144	1379
59.152	1404
59.16	1426.00000000002
59.168	1445
59.176	1461
59.184	1473.00000000001
59.192	1480
59.2	1481
59.208	1478
59.216	1472
59.224	1463.99999999999
59.232	1453
59.24	1440
59.248	1422.99999999998
59.256	1406
59.264	1388
59.272	1368
59.28	1347
59.288	1327.99999999998
59.296	1309
59.304	1291
59.312	1273.99999999999
59.32	1258
59.328	1243
59.336	1229
59.344	1216
59.352	1202.99999999999
59.36	1192
59.368	1181
59.376	1170.99999999999
59.384	1161
59.392	1150
59.4	1139
59.408	1129
59.416	1118.99999999999
59.424	1110
59.432	1100
59.44	1090
59.448	1080
59.456	1070
59.464	1060
59.472	1050
59.48	1039.99999999999
59.488	1031
59.496	1030
59.504	1036
59.512	1055
59.52	1100
59.528	1180
59.536	1291
59.544	1431.00000000014
59.552	1605
59.56	1805
59.568	2019
59.576	2235
59.584	2443
59.592	2627
59.6	2785
59.608	2915.0000000001
59.616	3008
59.624	3061
59.632	3082
59.64	3078
59.648	3050
59.656	3002
59.664	2940
59.672	2867.99999999993
59.68	2788
59.688	2702
59.696	2611
59.704	2516
59.712	2415
59.72	2308
59.728	2197
59.736	2085.9999999999
59.744	1973
59.752	1863
59.76	1757
59.768	1657
59.776	1567
59.784	1490
59.792	1424
59.8	1369.99999999996
59.808	1329
59.816	1302
59.824	1287
59.832	1283
59.84	1288
59.848	1300
59.856	1319
59.864	1342.00000000002
59.872	1366
59.88	1390
59.888	1412
59.896	1431
59.904	1446
59.912	1455
59.92	1460
59.928	1460
59.936	1456
59.944	1448
59.952	1436
59.96	1423
59.968	1410
59.976	1395
59.984	1380
59.992	1363.99999999999
60	1347
60.008	1330
60.016	1313
60.024	1297
60.032	1280.99999999999
60.04	1265
60.048	1250
60.056	1234.99999999999
60.064	1220
60.072	1205
60.08	1193
60.088	1183
60.096	1172.99999999999
60.104	1162
60.112	1150
60.12	1137.99999999999
60.128	1127
60.136	1116
60.144	1104
60.152	1093
60.16	1081.99999999999
60.168	1071
60.176	1062
60.184	1051.99999999999
60.192	1041
60.2	1030
60.208	1018
60.216	1007
60.224	1000
60.232	1003
60.24	1019
60.248	1052.00000000004
60.256	1114
60.264	1215
60.272	1349
60.28	1510
60.288	1699.00000000018
60.296	1905
60.304	2118
60.312	2327.00000000018
60.32	2521
60.328	2686
60.336	2821
60.344	2928
60.352	2998.00000000004
60.36	3031
60.368	3035
60.376	3015.99999999998
60.384	2975
60.392	2917
60.4	2847
60.408	2770
60.416	2684.99999999992
60.424	2594
60.432	2498
60.44	2397
60.448	2291
60.456	2181
60.464	2069
60.472	1957
60.48	1845.9999999999
60.488	1739
60.496	1639
60.504	1547
60.512	1466
60.52	1398
60.528	1343
60.536	1300
60.544	1269.99999999998
60.552	1255
60.56	1252
60.568	1256
60.576	1268
60.584	1286
60.592	1309
60.6	1335
60.608	1360.00000000002
60.616	1383
60.624	1405
60.632	1424
60.64	1437
60.648	1445
60.656	1449
60.664	1449
60.672	1445
60.68	1437
60.688	1426
60.696	1413
60.704	1399
60.712	1383
60.72	1366
60.728	1349
60.736	1331.99999999998
60.744	1314
60.752	1296
60.76	1278
60.768	1262
60.776	1246
60.784	1231
60.792	1218
60.8	1204.99999999999
60.808	1194
60.816	1182
60.824	1171
60.832	1161
60.84	1151
60.848	1142
60.856	1132
60.864	1120.99999999999
60.872	1111
60.88	1101
60.888	1091
60.896	1082
60.904	1073
60.912	1065
60.92	1056
60.928	1045.99999999999
60.936	1036
60.944	1026
60.952	1019
60.96	1020
60.968	1037
60.976	1073
60.984	1131
60.992	1223.0000000001
61	1355
61.008	1516
61.016	1698
61.024	1901
61.032	2110.00000000018
61.04	2315
61.048	2509
61.056	2678.00000000013
61.064	2812
61.072	2916
61.08	2991
61.088	3031
61.096	3037
61.104	3019
61.112	2984
61.12	2929.99999999995
61.128	2861
61.136	2784
61.144	2702
61.152	2614
61.16	2517.99999999991
61.168	2417
61.176	2313
61.184	2205.9999999999
61.192	2096
61.2	1984
61.208	1873
61.216	1766
61.224	1665.99999999992
61.232	1575
61.24	1494
61.248	1423.99999999994
61.256	1368
61.264	1325
61.272	1295
61.28	1277
61.288	1271
61.296	1276
61.304	1287
61.312	1305.00000000002
61.32	1328
61.328	1354
61.336	1381
61.344	1406
61.352	1426.00000000002
61.36	1443
61.368	1457
61.376	1465
61.384	1468
61.392	1467
61.4	1464
61.408	1458
61.416	1447.99999999999
61.424	1435
61.432	1421
61.44	1405
61.448	1388
61.456	1368
61.464	1348
61.472	1329
61.48	1310.99999999998
61.488	1294
61.496	1278
61.504	1263
61.512	1248
61.52	1233
61.528	1221
61.536	1210
61.544	1197.99999999999
61.552	1187
61.56	1177
61.568	1167
61.576	1158
61.584	1148
61.592	1138
61.6	1129
61.608	1119.99999999999
61.616	1109
61.624	1099
61.632	1090
61.64	1081
61.648	1073
61.656	1064
61.664	1054
61.672	1044.99999999999
61.68	1039
61.688	1039
61.696	1052
61.704	1089
61.712	1150
61.72	1236
61.728	1358
61.736	1517.00000000015
61.744	1703
61.752	1904
61.76	2114
61.768	2318
61.776	2509
61.784	2681
61.792	2822
61.8	2925.00000000007
61.808	2996
61.816	3038
61.824	3049
61.832	3032
61.84	2993
61.848	2940
61.856	2874
61.864	2797.99999999993
61.872	2715
61.88	2628
61.888	2535
61.896	2437
61.904	2334
61.912	2226
61.92	2115
61.928	2002.9999999999
61.936	1891
61.944	1783
61.952	1681
61.96	1589
61.968	1508
61.976	1436
61.984	1377
61.992	1334.99999999997
62	1306
62.008	1287
62.016	1280
62.024	1284
62.032	1296.00000000001
62.04	1313
62.048	1336
62.056	1361.00000000002
62.064	1387
62.072	1412
62.08	1434
62.088	1451
62.096	1464.00000000001
62.104	1472
62.112	1476
62.12	1475
62.128	1470
62.136	1462
62.144	1451
62.152	1438
62.16	1422.99999999999
62.168	1408
62.176	1390
62.184	1369.99999999998
62.192	1351
62.2	1332
62.208	1312
62.216	1294
62.224	1276.99999999999
62.232	1262
62.24	1247
62.248	1233.99999999999
62.256	1222
62.264	1210
62.272	1198
62.28	1187
62.288	1177.99999999999
62.296	1169
62.304	1161
62.312	1151.99999999999
62.32	1142
62.328	1132
62.336	1121
62.344	1111
62.352	1100.99999999999
62.36	1092
62.368	1083
62.376	1072.99999999999
62.384	1064
62.392	1055
62.4	1046
62.408	1040
62.416	1039
62.424	1048
62.432	1076
62.44	1136.00000000006
62.448	1225
62.456	1342
62.464	1493
62.472	1675
62.48	1877.00000000018
62.488	2087
62.496	2296
62.504	2488
62.512	2660
62.52	2809
62.528	2924
62.536	2998
62.544	3039.00000000002
62.552	3055
62.56	3044
62.568	3008
62.576	2955
62.584	2892
62.592	2818
62.6	2736
62.608	2648.99999999992
62.616	2557
62.624	2459
62.632	2355
62.64	2247
62.648	2138
62.656	2027
62.664	1917
62.672	1809.99999999991
62.68	1708
62.688	1614
62.696	1532
62.704	1461
62.712	1401
62.72	1354
62.728	1320
62.736	1297.99999999999
62.744	1287
62.752	1288
62.76	1297
62.768	1314
62.776	1335
62.784	1358
62.792	1381
62.8	1405.00000000002
62.808	1426
62.816	1442
62.824	1454
62.832	1463
62.84	1469
62.848	1470
62.856	1466
62.864	1458.99999999999
62.872	1450
62.88	1437
62.888	1423
62.896	1407
62.904	1389
62.912	1370
62.92	1351
62.928	1332.99999999998
62.936	1316
62.944	1299
62.952	1282
62.96	1265
62.968	1250
62.976	1236
62.984	1223
62.992	1210.99999999999
63	1199
63.008	1188
63.016	1177
63.024	1167
63.032	1157.99999999999
63.04	1148
63.048	1138
63.056	1127.99999999999
63.064	1118
63.072	1109
63.08	1101
63.088	1093
63.096	1084.99999999999
63.104	1076
63.112	1065
63.12	1053.99999999999
63.128	1043
63.136	1035
63.144	1036
63.152	1048
63.16	1076.00000000003
63.168	1131
63.176	1223
63.184	1346.00000000012
63.192	1496
63.2	1677
63.208	1878
63.216	2089
63.224	2299.00000000018
63.232	2495
63.24	2665
63.248	2807.00000000011
63.256	2920
63.264	2995
63.272	3034
63.28	3044
63.288	3030.99999999998
63.296	2996
63.304	2942
63.312	2876.99999999994
63.32	2806
63.328	2726
63.336	2639
63.344	2547
63.352	2449.99999999991
63.36	2347
63.368	2240
63.376	2129.9999999999
63.384	2019
63.392	1909
63.4	1803
63.408	1702
63.416	1606.99999999992
63.424	1523
63.432	1451
63.44	1389.99999999995
63.448	1340
63.456	1304
63.464	1283
63.472	1274
63.48	1273
63.488	1283
63.496	1301
63.504	1323
63.512	1347
63.52	1372
63.528	1395
63.536	1416
63.544	1433.00000000001
63.552	1448
63.56	1458
63.568	1462
63.576	1461
63.584	1456
63.592	1448
63.6	1438
63.608	1425.99999999999
63.616	1413
63.624	1398
63.632	1380
63.64	1361
63.648	1343
63.656	1324
63.664	1304
63.672	1284.99999999998
63.68	1267
63.688	1250
63.696	1234
63.704	1221
63.712	1210
63.72	1198
63.728	1186
63.736	1174.99999999999
63.744	1165
63.752	1155
63.76	1146
63.768	1136
63.776	1126
63.784	1116
63.792	1106
63.8	1096.99999999999
63.808	1089
63.816	1080
63.824	1070
63.832	1061
63.84	1052
63.848	1041
63.856	1031
63.864	1023
63.872	1021
63.88	1034
63.888	1063
63.896	1114
63.904	1197
63.912	1320
63.92	1473
63.928	1650.00000000017
63.936	1850
63.944	2060
63.952	2270
63.96	2470
63.968	2648
63.976	2792
63.984	2904
63.992	2987.00000000005
64	3036
64.008	3051
64.016	3040
64.024	3009
64.032	2961
64.04	2897
64.048	2823
64.056	2743
64.064	2655.99999999984
64.072	2562
64.08	2463
64.088	2360.99999999982
64.096	2255
64.104	2145
64.112	2034
64.12	1923
64.128	1814
64.136	1711
64.144	1616
64.152	1528
64.16	1452
64.168	1391
64.176	1343
64.184	1306
64.192	1281.99999999997
64.2	1272
64.208	1272
64.216	1279.00000000002
64.224	1294
64.232	1314
64.24	1338
64.248	1362
64.256	1384
64.264	1405
64.272	1425
64.28	1440
64.288	1449
64.296	1454
64.304	1455
64.312	1453
64.32	1446.99999999999
64.328	1437
64.336	1425
64.344	1412.99999999998
64.352	1399
64.36	1383
64.368	1366
64.376	1349
64.384	1332
64.392	1314
64.4	1297
64.408	1280
64.416	1262
64.424	1246
64.432	1232
64.44	1220
64.448	1208.99999999998
64.456	1199
64.464	1190
64.472	1179.99999999998
64.48	1169
64.488	1159
64.496	1149
64.504	1138
64.512	1127
64.52	1117
64.528	1107
64.536	1098
64.544	1089
64.552	1080
64.56	1070
64.568	1060
64.576	1047.99999999998
64.584	1036
64.592	1027
64.6	1024
64.608	1032
64.616	1064
64.624	1120
64.632	1202
64.64	1320
64.648	1476
64.656	1661
64.664	1864
64.672	2077
64.68	2287
64.688	2486
64.696	2666
64.704	2816.00000000023
64.712	2927
64.72	3006
64.728	3055
64.736	3071
64.744	3058
64.752	3023
64.76	2973
64.768	2909
64.776	2835
64.784	2755
64.792	2670
64.8	2578
64.808	2480
64.816	2378
64.824	2273
64.832	2164.99999999981
64.84	2054
64.848	1942
64.856	1833
64.864	1730
64.872	1636
64.88	1551
64.888	1476
64.896	1414
64.904	1366
64.912	1330
64.92	1305
64.928	1292
64.936	1291
64.944	1299
64.952	1312
64.96	1331.00000000004
64.968	1354
64.976	1378
64.984	1402
64.992	1423
65	1440
65.008	1453
65.016	1464
65.024	1469
65.032	1470
65.04	1467
65.048	1461
65.056	1451
65.064	1437.99999999998
65.072	1423
65.08	1407
65.088	1389.99999999997
65.096	1372
65.104	1353
65.112	1334
65.12	1315
65.128	1298
65.136	1281
65.144	1265
65.152	1249
65.16	1234
65.168	1220
65.176	1207
65.184	1195
65.192	1183.99999999998
65.2	1173
65.208	1163
65.216	1153.99999999998
65.224	1145
65.232	1136
65.24	1125
65.248	1115
65.256	1105
65.264	1096
65.272	1088
65.28	1080
65.288	1071
65.296	1062
65.304	1052
65.312	1041
65.32	1032.99999999999
65.328	1030
65.336	1036
65.344	1061.00000000006
65.352	1117
65.36	1202
65.368	1315
65.376	1464
65.384	1645
65.392	1848
65.4	2059
65.408	2272
65.416	2469
65.424	2646
65.432	2798
65.44	2916
65.448	2995.0000000001
65.456	3041
65.464	3060
65.472	3049.99999999997
65.48	3016
65.488	2965
65.496	2903
65.504	2830
65.512	2748
65.52	2661
65.528	2569
65.536	2471
65.544	2368
65.552	2261
65.56	2152
65.568	2041
65.576	1930.99999999981
65.584	1823
65.592	1720
65.6	1623
65.608	1537
65.616	1461
65.624	1396
65.632	1345
65.64	1310
65.648	1286
65.656	1272
65.664	1269
65.672	1277
65.68	1292
65.688	1311
65.696	1335
65.704	1360.00000000004
65.712	1384
65.72	1408
65.728	1429
65.736	1444
65.744	1454
65.752	1461
65.76	1464
65.768	1462
65.776	1457
65.784	1449
65.792	1437
65.8	1423
65.808	1408
65.816	1391
65.824	1372
65.832	1350.99999999996
65.84	1332
65.848	1314
65.856	1296
65.864	1277
65.872	1259
65.88	1243
65.888	1228
65.896	1213
65.904	1200
65.912	1187
65.92	1175
65.928	1163
65.936	1151
65.944	1139
65.952	1128
65.96	1116.99999999998
65.968	1106
65.976	1095
65.984	1085
65.992	1075
66	1066
66.008	1057
66.016	1049
66.024	1040
66.032	1030
66.04	1021
66.048	1014
66.056	1012
66.064	1017.00000000001
66.072	1034
66.08	1073
66.088	1147.00000000015
66.096	1252
66.104	1384
66.112	1550
66.12	1743
66.128	1951
66.136	2162
66.144	2365
66.152	2547
66.16	2705
66.168	2837
66.176	2934
66.184	2991
66.192	3017.00000000001
66.2	3019
66.208	2995
66.216	2949.99999999991
66.224	2890
66.232	2819
66.24	2740
66.248	2654
66.256	2563
66.264	2468
66.272	2366
66.28	2259
66.288	2151
66.296	2041
66.304	1929
66.312	1819
66.32	1713.99999999982
66.328	1616
66.336	1526
66.344	1446.99999999987
66.352	1381
66.36	1326
66.368	1283
66.376	1255
66.384	1239
66.392	1234
66.4	1240
66.408	1254
66.416	1274
66.424	1298
66.432	1324
66.44	1349
66.448	1374.00000000004
66.456	1396
66.464	1413
66.472	1427.00000000002
66.48	1437
66.488	1442
66.496	1441
66.504	1437
66.512	1430
66.52	1419
66.528	1406
66.536	1390
66.544	1373
66.552	1357
66.56	1339
66.568	1320
66.576	1300.99999999997
66.584	1283
66.592	1266
66.6	1248
66.608	1231
66.616	1217
66.624	1203
66.632	1190
66.64	1178
66.648	1167
66.656	1157
66.664	1147
66.672	1137
66.68	1127
66.688	1118
66.696	1109
66.704	1099.99999999998
66.712	1091
66.72	1083
66.728	1075
66.736	1068
66.744	1060
66.752	1052
66.76	1044
66.768	1035
66.776	1025
66.784	1016
66.792	1015
66.8	1026
66.808	1053
66.816	1107
66.824	1198
66.832	1321.00000000024
66.84	1471
66.848	1651
66.856	1852
66.864	2062
66.872	2271
66.88	2468
66.888	2638
66.896	2782
66.904	2898
66.912	2977
66.92	3018
66.928	3029
66.936	3019
66.944	2985
66.952	2932
66.96	2865.99999999988
66.968	2792
66.976	2710
66.984	2620
66.992	2525
67	2427
67.008	2325
67.016	2218
67.024	2107
67.032	1996
67.04	1885
67.048	1778
67.056	1676
67.064	1581.99999999984
67.072	1497
67.08	1425
67.088	1365.9999999999
67.096	1317
67.104	1281
67.112	1260
67.12	1250
67.128	1249
67.136	1259
67.144	1277
67.152	1300
67.16	1326
67.168	1353
67.176	1378
67.184	1400
67.192	1420.00000000003
67.2	1435
67.208	1445
67.216	1451.00000000001
67.224	1453
67.232	1452
67.24	1447
67.248	1439
67.256	1428
67.264	1414
67.272	1398
67.28	1380
67.288	1362
67.296	1344
67.304	1325
67.312	1306
67.32	1286.99999999997
67.328	1270
67.336	1253
67.344	1237.99999999997
67.352	1224
67.36	1211
67.368	1199
67.376	1188
67.384	1177
67.392	1167
67.4	1157
67.408	1147
67.416	1137
67.424	1127
67.432	1118
67.44	1108
67.448	1098.99999999998
67.456	1091
67.464	1082
67.472	1072.99999999998
67.48	1065
67.488	1057
67.496	1049
67.504	1040
67.512	1031
67.52	1028
67.528	1037
67.536	1061
67.544	1105
67.552	1180
67.56	1293
67.568	1439
67.576	1610.00000000032
67.584	1805
67.592	2012
67.6	2220
67.608	2421
67.616	2602
67.624	2750
67.632	2869
67.64	2960
67.648	3014
67.656	3033
67.664	3027
67.672	3000
67.68	2953
67.688	2892
67.696	2819
67.704	2739.99999999985
67.712	2654
67.72	2561
67.728	2464
67.736	2363
67.744	2258
67.752	2149
67.76	2039
67.768	1929
67.776	1821
67.784	1718
67.792	1621
67.8	1533
67.808	1457
67.816	1395
67.824	1345
67.832	1304.99999999994
67.84	1277
67.848	1264
67.856	1262
67.864	1269
67.872	1285
67.88	1305
67.888	1328
67.896	1353
67.904	1378
67.912	1399
67.92	1419
67.928	1437
67.936	1449
67.944	1455
67.952	1458
67.96	1455.99999999999
67.968	1451
67.976	1444
67.984	1433
67.992	1420
68	1404
68.008	1387
68.016	1370
68.024	1352
68.032	1333
68.04	1314
68.048	1295
68.056	1278
68.064	1260.99999999997
68.072	1245
68.08	1230
68.088	1214.99999999997
68.096	1195
68.104	1183
68.112	1172
68.12	1150
68.128	1141
68.136	1133
68.144	1116
68.152	1107
68.16	1097
68.168	1085
68.176	1076
68.184	1067
68.192	1058.99999999998
68.2	1044
68.208	1035
68.216	1029
68.224	1031
68.232	1055
68.24	1101
68.248	1172
68.256	1277
68.264	1420
68.272	1591
68.28	1783
68.288	1990
68.296	2196
68.304	2395
68.312	2579
68.32	2735.00000000024
68.328	2855
68.336	2943
68.344	3002.00000000006
68.352	3028
68.36	3023
68.368	2995
68.376	2951
68.384	2892
68.392	2820
68.4	2741
68.408	2656
68.416	2564
68.424	2467
68.432	2366
68.44	2261
68.448	2152.99999999981
68.456	2042
68.464	1929
68.472	1818.99999999981
68.48	1714
68.488	1616
68.496	1526
68.504	1446
68.512	1379
68.52	1327
68.528	1287
68.536	1258
68.544	1242
68.552	1239
68.56	1246
68.568	1259
68.576	1279.00000000004
68.584	1303
68.592	1330
68.6	1357.00000000005
68.608	1381
68.616	1401
68.624	1418
68.632	1430
68.64	1437
68.648	1441
68.656	1442
68.664	1438
68.672	1431
68.68	1422
68.688	1409
68.696	1395
68.704	1379.99999999997
68.712	1363
68.72	1345
68.728	1326
68.736	1306
68.744	1287
68.752	1269
68.76	1251
68.768	1234
68.776	1218
68.784	1204
68.792	1191
68.8	1179
68.808	1168
68.816	1157
68.824	1147
68.832	1136.99999999998
68.84	1127
68.848	1118
68.856	1108
68.864	1098
68.872	1088
68.88	1078
68.888	1069
68.896	1060
68.904	1050
68.912	1041
68.92	1033
68.928	1024
68.936	1015
68.944	1011
68.952	1016
68.96	1036.00000000005
68.968	1083
68.976	1158
68.984	1260
68.992	1398
69	1570
69.008	1765
69.016	1972
69.024	2182
69.032	2380
69.04	2560
69.048	2718
69.056	2844
69.064	2932.00000000012
69.072	2988
69.08	3017
69.088	3017
69.096	2990
69.104	2944
69.112	2886
69.12	2816
69.128	2737
69.136	2652
69.144	2563
69.152	2469
69.16	2368
69.168	2263
69.176	2157
69.184	2048
69.192	1936.9999999998
69.2	1828
69.208	1723
69.216	1625.99999999984
69.224	1537
69.232	1459
69.24	1391
69.248	1336
69.256	1295
69.264	1266
69.272	1247
69.28	1240
69.288	1243
69.296	1256
69.304	1274
69.312	1296
69.32	1320.00000000004
69.328	1344
69.336	1368
69.344	1390.00000000003
69.352	1406
69.36	1418
69.368	1427
69.376	1432
69.384	1432
69.392	1428
69.4	1421
69.408	1411
69.416	1398
69.424	1384
69.432	1369
69.44	1353
