Time	PPG1
0	1830
0.008	1819
0.016	1810
0.024	1801
0.032	1793
0.04	1785
0.048	1775
0.056	1764
0.064	1754
0.072	1746
0.08	1741
0.088	1737
0.096	1733
0.104	1729
0.112	1727
0.12	1728
0.128	1728
0.136	1730
0.144	1733
0.152	1735
0.16	1736
0.168	1734
0.176	1731
0.184	1730
0.192	1729
0.2	1729
0.208	1729
0.216	1729
0.224	1729
0.232	1729
0.24	1731
0.248	1734
0.256	1735
0.264	1736
0.272	1736
0.28	1736
0.288	1736
0.296	1736
0.304	1736
0.312	1736
0.32	1736
0.328	1736
0.336	1737
0.344	1739
0.352	1740
0.36	1742
0.368	1747
0.376	1754
0.384	1763
0.392	1780
0.4	1804
0.408	1834
0.416	1871
0.424	1914
0.432	1957
0.44	2001
0.448	2045
0.456	2087
0.464	2127
0.472	2162
0.48	2189
0.488	2209
0.496	2221
0.504	2225
0.512	2225
0.52	2223
0.528	2216
0.536	2204
0.544	2189
0.552	2171
0.56	2148
0.568	2122
0.576	2095
0.584	2068
0.592	2042
0.6	2017
0.608	1997
0.616	1981
0.624	1967
0.632	1956
0.64	1946
0.648	1939
0.656	1934
0.664	1927
0.672	1922
0.68	1917
0.688	1913
0.696	1911
0.704	1908
0.712	1904
0.72	1900
0.728	1894
0.736	1889
0.744	1885
0.752	1879
0.76	1872
0.768	1864
0.776	1856
0.784	1848
0.792	1840
0.8	1832
0.808	1824
0.816	1816
0.824	1810
0.832	1805
0.84	1799
0.848	1794
0.856	1789
0.864	1783
0.872	1776
0.88	1768
0.888	1760
0.896	1751
0.904	1744
0.912	1740
0.92	1738
0.928	1737
0.936	1737
0.944	1737
0.952	1737
0.96	1737
0.968	1737
0.976	1735
0.984	1732
0.992	1730
1	1729
1.008	1731
1.016	1734
1.024	1735
1.032	1734
1.04	1731
1.048	1730
1.056	1727
1.064	1724
1.072	1722
1.08	1721
1.088	1721
1.096	1721
1.104	1719
1.112	1716
1.12	1714
1.128	1711
1.136	1708
1.144	1706
1.152	1705
1.16	1707
1.168	1710
1.176	1715
1.184	1724
1.192	1733
1.2	1747
1.208	1766
1.216	1791
1.224	1824
1.232	1864
1.24	1910
1.248	1957
1.256	2005
1.264	2053
1.272	2097
1.28	2134
1.288	2167
1.296	2196
1.304	2216
1.312	2230
1.32	2239
1.328	2244
1.336	2242
1.344	2233
1.352	2221
1.36	2206
1.368	2185
1.376	2159
1.384	2132
1.392	2104
1.4	2076
1.408	2052
1.416	2030
1.424	2009
1.432	1993
1.44	1981
1.448	1971
1.456	1962
1.464	1953
1.472	1945
1.48	1939
1.488	1936
1.496	1934
1.504	1933
1.512	1933
1.52	1933
1.528	1935
1.536	1938
1.544	1937
1.552	1933
1.56	1927
1.568	1920
1.576	1912
1.584	1904
1.592	1898
1.6	1895
1.608	1894
1.616	1893
1.624	1893
1.632	1898
1.64	1905
1.648	1905
1.656	1901
1.664	1899
1.672	1895
1.68	1890
1.688	1887
1.696	1886
1.704	1882
1.712	1877
1.72	1872
1.728	1866
1.736	1863
1.744	1862
1.752	1861
1.76	1861
1.768	1861
1.776	1861
1.784	1861
1.792	1861
1.8	1857
1.808	1851
1.816	1848
1.824	1846
1.832	1845
1.84	1845
1.848	1845
1.856	1845
1.864	1845
1.872	1849
1.88	1855
1.888	1861
1.896	1870
1.904	1877
1.912	1881
1.92	1880
1.928	1873
1.936	1863
1.944	1851
1.952	1842
1.96	1837
1.968	1838
1.976	1845
1.984	1859
1.992	1879
2	1902
2.008	1932
2.016	1976
2.024	2031
2.032	2095
2.04	2169
2.048	2252
2.056	2338
2.064	2423
2.072	2505
2.08	2585
2.088	2664
2.096	2738
2.104	2801
2.112	2853
2.12	2895
2.128	2922
2.136	2932
2.144	2924
2.152	2901
2.16	2871
2.168	2836
2.176	2798
2.184	2756
2.192	2713
2.2	2670
2.208	2622
2.216	2572
2.224	2524
2.232	2484
2.24	2448
2.248	2413
2.256	2383
2.264	2359
2.272	2337
2.28	2313
2.288	2288
2.296	2265
2.304	2244
2.312	2220
2.32	2199
2.328	2182
2.336	2166
2.344	2152
2.352	2135
2.36	2114
2.368	2090
2.376	2068
2.384	2048
2.392	2028
2.4	2011
2.408	2000
2.416	1991
2.424	1981
2.432	1973
2.44	1962
2.448	1946
2.456	1932
2.464	1918
2.472	1901
2.48	1884
2.488	1868
2.496	1853
2.504	1837
2.512	1819
2.52	1800
2.528	1781
2.536	1762
2.544	1742
2.552	1722
2.56	1702
2.568	1683
2.576	1665
2.584	1650
2.592	1635
2.6	1621
2.608	1608
2.616	1598
2.624	1590
2.632	1583
2.64	1580
2.648	1574
2.656	1564
2.664	1556
2.672	1549
2.68	1543
2.688	1540
2.696	1538
2.704	1540
2.712	1544
2.72	1543
2.728	1540
2.736	1535
2.744	1526
2.752	1517
2.76	1513
2.768	1511
2.776	1510
2.784	1513
2.792	1519
2.8	1525
2.808	1534
2.816	1544
2.824	1559
2.832	1580
2.84	1606
2.848	1638
2.856	1676
2.864	1725
2.872	1783
2.88	1844
2.888	1910
2.896	1972
2.904	2025
2.912	2075
2.92	2117
2.928	2151
2.936	2177
2.944	2193
2.952	2201
2.96	2202
2.968	2193
2.976	2173
2.984	2143
2.992	2108
3	2071
3.008	2034
3.016	1995
3.024	1956
3.032	1920
3.04	1886
3.048	1853
3.056	1827
3.064	1807
3.072	1788
3.08	1768
3.088	1751
3.096	1734
3.104	1715
3.112	1699
3.12	1685
3.128	1672
3.136	1662
3.144	1657
3.152	1655
3.16	1654
3.168	1653
3.176	1653
3.184	1650
3.192	1645
3.2	1643
3.208	1645
3.216	1649
3.224	1651
3.232	1649
3.24	1645
3.248	1643
3.256	1642
3.264	1638
3.272	1633
3.28	1631
3.288	1626
3.296	1619
3.304	1613
3.312	1607
3.32	1601
3.328	1595
3.336	1592
3.344	1587
3.352	1582
3.36	1579
3.368	1578
3.376	1573
3.384	1567
3.392	1561
3.4	1555
3.408	1549
3.416	1543
3.424	1540
3.432	1538
3.44	1537
3.448	1537
3.456	1537
3.464	1537
3.472	1537
3.48	1537
3.488	1537
3.496	1537
3.504	1540
3.512	1544
3.52	1546
3.528	1550
3.536	1552
3.544	1550
3.552	1549
3.56	1549
3.568	1552
3.576	1556
3.584	1562
3.592	1569
3.6	1576
3.608	1585
3.616	1596
3.624	1608
3.632	1621
3.64	1634
3.648	1646
3.656	1665
3.664	1698
3.672	1740
3.68	1780
3.688	1818
3.696	1862
3.704	1905
3.712	1945
3.72	1983
3.728	2016
3.736	2042
3.744	2063
3.752	2082
3.76	2095
3.768	2104
3.776	2108
3.784	2108
3.792	2104
3.8	2094
3.808	2079
3.816	2060
3.824	2036
3.832	2008
3.84	1980
3.848	1954
3.856	1930
3.864	1909
3.872	1891
3.88	1876
3.888	1864
3.896	1854
3.904	1845
3.912	1837
3.92	1827
3.928	1816
3.936	1806
3.944	1797
3.952	1789
3.96	1783
3.968	1778
3.976	1773
3.984	1769
3.992	1763
4	1758
4.008	1753
4.016	1747
4.024	1740
4.032	1732
4.04	1724
4.048	1716
4.056	1708
4.064	1700
4.072	1694
4.08	1691
4.088	1688
4.096	1684
4.104	1682
4.112	1681
4.12	1681
4.128	1681
4.136	1681
4.144	1681
4.152	1681
4.16	1681
4.168	1683
4.176	1686
4.184	1687
4.192	1688
4.2	1686
4.208	1683
4.216	1680
4.224	1676
4.232	1674
4.24	1673
4.248	1675
4.256	1678
4.264	1681
4.272	1685
4.28	1687
4.288	1688
4.296	1688
4.304	1688
4.312	1688
4.32	1688
4.328	1688
4.336	1688
4.344	1688
4.352	1688
4.36	1688
4.368	1686
4.376	1683
4.384	1682
4.392	1681
4.4	1681
4.408	1683
4.416	1686
4.424	1687
4.432	1690
4.44	1693
4.448	1697
4.456	1703
4.464	1712
4.472	1726
4.48	1747
4.488	1778
4.496	1817
4.504	1862.00000000001
4.512	1909.00000000001
4.52	1955.00000000001
4.528	1998
4.536	2039
4.544	2078
4.552	2113
4.56	2145
4.568	2169
4.576	2183
4.584	2190
4.592	2191
4.6	2186
4.608	2177
4.616	2165
4.624	2147
4.632	2126
4.64	2103
4.648	2078
4.656	2051
4.664	2026
4.672	2001
4.68	1979
4.688	1960
4.696	1946
4.704	1937
4.712	1929
4.72	1920
4.728	1912
4.736	1904
4.744	1894
4.752	1885
4.76	1879
4.768	1874
4.776	1869
4.784	1865
4.792	1861
4.8	1859
4.808	1858
4.816	1855
4.824	1848
4.832	1838
4.84	1827
4.848	1816
4.856	1804
4.864	1792
4.872	1782
4.88	1773
4.888	1765
4.896	1757
4.904	1747
4.912	1736
4.92	1726
4.928	1717
4.936	1709
4.944	1701
4.952	1695
4.96	1692
4.968	1690
4.976	1687
4.984	1684
4.992	1682
5	1681
5.008	1681
5.016	1681
5.024	1681
5.032	1681
5.04	1681
5.048	1681
5.056	1681
5.064	1681
5.072	1681
5.08	1681
5.088	1683
5.096	1686
5.104	1687
5.112	1688
5.12	1688
5.128	1688
5.136	1688
5.144	1688
5.152	1688
5.16	1688
5.168	1688
5.176	1688
5.184	1688
5.192	1688
5.2	1688
5.208	1688
5.216	1688
5.224	1688
5.232	1688
5.24	1688
5.248	1688
5.256	1688
5.264	1690
5.272	1697
5.28	1711
5.288	1732
5.296	1760
5.304	1796
5.312	1841
5.32	1891
5.328	1940
5.336	1986
5.344	2029
5.352	2071
5.36	2110
5.368	2143
5.376	2168
5.384	2184
5.392	2194
5.4	2197
5.408	2195
5.416	2188
5.424	2176
5.432	2160
5.44	2140
5.448	2118
5.456	2093
5.464	2065
5.472	2035
5.48	2004
5.488	1974
5.496	1949
5.504	1930
5.512	1913
5.52	1899
5.528	1888
5.536	1880
5.544	1874
5.552	1867
5.56	1860
5.568	1854
5.576	1849
5.584	1845
5.592	1843
5.6	1840
5.608	1836
5.616	1834
5.624	1833
5.632	1831
5.64	1826
5.648	1821
5.656	1817
5.664	1811
5.672	1804
5.68	1796
5.688	1788
5.696	1780
5.704	1772
5.712	1764
5.72	1756
5.728	1741
5.736	1722
5.744	1709
5.752	1699
5.76	1687
5.768	1675
5.776	1662
5.784	1648
5.792	1638
5.8	1633
5.808	1628
5.816	1622
5.824	1619
5.832	1618
5.84	1620
5.848	1624
5.856	1626
5.864	1627
5.872	1628
5.88	1628
5.888	1628
5.896	1628
5.904	1628
5.912	1628
5.92	1628
5.928	1628
5.936	1628
5.944	1628
5.952	1631
5.96	1640
5.968	1648
5.976	1655
5.984	1662
5.992	1665
6	1664
6.008	1656
6.016	1645
6.024	1637
6.032	1633
6.04	1634
6.048	1641
6.056	1655
6.064	1675
6.072	1702
6.08	1735
6.088	1776
6.096	1827
6.104	1890
6.112	1962
6.12	2043
6.128	2131
6.136	2225
6.144	2323
6.152	2417
6.16	2505
6.168	2586
6.176	2660
6.184	2727
6.192	2781
6.2	2822
6.208	2852
6.216	2870
6.224	2876
6.232	2869
6.24	2849
6.248	2819
6.256	2780
6.264	2733
6.272	2683
6.28	2631
6.288	2578
6.296	2527
6.304	2485
6.312	2447
6.32	2411
6.328	2383
6.336	2359
6.344	2336
6.352	2314
6.36	2293
6.368	2276
6.376	2260
6.384	2248
6.392	2242
6.4	2236
6.408	2230
6.416	2224
6.424	2214
6.432	2202
6.44	2190
6.448	2177
6.456	2164
6.464	2147
6.472	2125
6.48	2104
6.488	2086
6.496	2070
6.504	2059
6.512	2054
6.52	2051
6.528	2050
6.536	2046
6.544	2037
6.552	2026
6.56	2017
6.568	2009
6.576	1998
6.584	1986
6.592	1977
6.6	1969
6.608	1958
6.616	1945
6.624	1932
6.632	1919
6.64	1910
6.648	1901
6.656	1890
6.664	1877
6.672	1864
6.68	1851
6.688	1838
6.696	1824
6.704	1810
6.712	1793
6.72	1775
6.728	1759
6.736	1745
6.744	1735
6.752	1726
6.76	1717
6.768	1710
6.776	1703
6.784	1696
6.792	1685
6.8	1674
6.808	1658
6.816	1643
6.824	1633
6.832	1625
6.84	1621
6.848	1619
6.856	1618
6.864	1620
6.872	1624
6.88	1626
6.888	1627
6.896	1628
6.904	1631
6.912	1643
6.92	1666
6.928	1704
6.936	1757
6.944	1821
6.952	1894
6.96	1968
6.968	2039
6.976	2105
6.984	2165
6.992	2222
7	2270
7.008	2308
7.016	2337
7.024	2355
7.032	2364
7.04	2362
7.048	2351
7.056	2332
7.064	2302
7.072	2267
7.08	2226
7.088	2178
7.096	2127
7.104	2078
7.112	2033
7.12	1990
7.128	1951
7.136	1915
7.144	1880
7.152	1852
7.16	1827
7.168	1805
7.176	1788
7.184	1772
7.192	1754
7.2	1735
7.208	1719
7.216	1704
7.224	1689
7.232	1676
7.24	1666
7.248	1657
7.256	1646
7.264	1637
7.272	1630
7.28	1619
7.288	1610
7.296	1605
7.304	1600
7.312	1594
7.32	1591
7.328	1586
7.336	1579
7.344	1576
7.352	1574
7.36	1573
7.368	1573
7.376	1573
7.384	1573
7.392	1570
7.4	1565
7.408	1560
7.416	1554
7.424	1547
7.432	1540
7.44	1536
7.448	1534
7.456	1533
7.464	1533
7.472	1533
7.48	1537
7.488	1543
7.496	1546
7.504	1547
7.512	1548
7.52	1548
7.528	1548
7.536	1548
7.544	1548
7.552	1548
7.56	1548
7.568	1548
7.576	1548
7.584	1544
7.592	1538
7.6	1535
7.608	1534
7.616	1533
7.624	1533
7.632	1533
7.64	1533
7.648	1533
7.656	1533
7.664	1533
7.672	1533
7.68	1537
7.688	1543
7.696	1549
7.704	1558
7.712	1569
7.72	1582
7.728	1598
7.736	1620
7.744	1644
7.752	1676
7.76	1723
7.768	1781
7.776	1826
7.784	1860
7.792	1902
7.8	1944
7.808	1983
7.816	2018
7.824	2046
7.832	2067
7.84	2082
7.848	2091
7.856	2096
7.864	2094
7.872	2084
7.88	2068
7.888	2047
7.896	2021
7.904	1990
7.912	1960
7.92	1934
7.928	1910
7.936	1889
7.944	1873
7.952	1858
7.96	1843
7.968	1832
7.976	1824
7.984	1817
7.992	1809
8	1801
8.008	1795
8.016	1790
8.024	1782
8.032	1775
8.04	1770
8.048	1765
8.056	1761
8.064	1755
8.072	1750
8.08	1744
8.088	1736
8.096	1728
8.104	1720
8.112	1711
8.12	1702
8.128	1693
8.136	1683
8.144	1674
8.152	1669
8.16	1665
8.168	1661
8.176	1659
8.184	1658
8.192	1657
8.2	1657
8.208	1657
8.216	1657
8.224	1657
8.232	1657
8.24	1654
8.248	1649
8.256	1647
8.264	1646
8.272	1645
8.28	1645
8.288	1645
8.296	1645
8.304	1645
8.312	1648
8.32	1652
8.328	1654
8.336	1655
8.344	1656
8.352	1658
8.36	1661
8.368	1663
8.376	1664
8.384	1664
8.392	1664
8.4	1664
8.408	1664
8.416	1664
8.424	1664
8.432	1664
8.44	1664
8.448	1664
8.456	1664
8.464	1664
8.472	1664
8.48	1664
8.488	1664
8.496	1664
8.504	1664
8.512	1667
8.52	1670
8.528	1672
8.536	1679
8.544	1691
8.552	1713
8.56	1744
8.568	1781
8.576	1825
8.584	1874
8.592	1922
8.6	1969
8.608	2014
8.616	2053
8.624	2088
8.632	2117
8.64	2141
8.648	2159
8.656	2170
8.664	2175
8.672	2174
8.68	2164
8.688	2148
8.696	2115
8.704	2089
8.712	2060
8.72	2000
8.728	1971
8.736	1946
8.744	1906
8.752	1891
8.76	1880
8.768	1868
8.776	1862
8.784	1854
8.792	1845
8.8	1837
8.808	1829
8.816	1823
8.824	1820
8.832	1818
8.84	1814
8.848	1809
8.856	1805
8.864	1799
8.872	1792
8.88	1783
8.888	1776
8.896	1770
8.904	1763
8.912	1753
8.92	1741
8.928	1731
8.936	1722
8.944	1712
8.952	1704
8.96	1698
8.968	1689
8.976	1679
8.984	1672
8.992	1666
9	1661
9.008	1659
9.016	1658
9.024	1657
9.032	1657
9.04	1657
9.048	1657
9.056	1657
9.064	1657
9.072	1657
9.08	1654
9.088	1649
9.096	1647
9.104	1646
9.112	1645
9.12	1645
9.128	1645
9.136	1645
9.144	1643
9.152	1640
9.16	1640
9.168	1642
9.176	1643
9.184	1647
9.192	1652
9.2	1656
9.208	1660
9.216	1660
9.224	1658
9.232	1657
9.24	1657
9.248	1657
9.256	1657
9.264	1659
9.272	1662
9.28	1663
9.288	1664
9.296	1666
9.304	1669
9.312	1673
9.32	1681
9.328	1696
9.336	1717
9.344	1746
9.352	1785
9.36	1834
9.368	1887
9.376	1941
9.384	1995
9.392	2047
9.4	2095
9.408	2139
9.416	2174
9.424	2200
9.432	2220
9.44	2232
9.448	2236
9.456	2234
9.464	2228
9.472	2218
9.48	2202
9.488	2180
9.496	2153
9.504	2123
9.512	2093
9.52	2062
9.528	2028
9.536	1995
9.544	1968
9.552	1945
9.56	1925
9.568	1908
9.576	1894
9.584	1881
9.592	1869
9.6	1856
9.608	1842
9.616	1831
9.624	1821
9.632	1813
9.64	1807
9.648	1800
9.656	1792
9.664	1783
9.672	1772
9.68	1760
9.688	1747
9.696	1732
9.704	1717
9.712	1703
9.72	1690
9.728	1679
9.736	1670
9.744	1663
9.752	1660
9.76	1655
9.768	1650
9.776	1645
9.784	1639
9.792	1627
9.8	1611
9.808	1600
9.816	1591
9.824	1584
9.832	1580
9.84	1574
9.848	1567
9.856	1564
9.864	1562
9.872	1561
9.88	1561
9.888	1561
9.896	1561
9.904	1558
9.912	1553
9.92	1551
9.928	1550
9.936	1549
9.944	1552
9.952	1556
9.96	1558
9.968	1563
9.976	1570
9.984	1573
9.992	1578
10	1583
10.008	1586
10.016	1590
10.024	1595
10.032	1598
10.04	1599
10.048	1603
10.056	1608
10.064	1614
10.072	1624
10.08	1635
10.088	1644
10.096	1648
10.104	1650
10.112	1654
10.12	1665
10.128	1684
10.136	1713.00000000001
10.144	1757
10.152	1815.00000000001
10.16	1886
10.168	1963.00000000002
10.176	2045
10.184	2131.00000000002
10.192	2219
10.2	2312.00000000002
10.208	2400
10.216	2480.00000000002
10.224	2553
10.232	2616.00000000001
10.24	2669
10.248	2712
10.256	2743
10.264	2765
10.272	2776
10.28	2772
10.288	2754
10.296	2725
10.304	2688
10.312	2640
10.32	2587
10.328	2538
10.336	2494
10.344	2456
10.352	2424
10.36	2392
10.368	2359
10.376	2330
10.384	2302
10.392	2275
10.4	2249
10.408	2223
10.416	2197
10.424	2174
10.432	2156
10.44	2141
10.448	2127
10.456	2113
10.464	2100
10.472	2087
10.48	2074
10.488	2063
10.496	2055
10.504	2045
10.512	2034
10.52	2025
10.528	2017
10.536	2006
10.544	1997
10.552	1990
10.56	1980
10.568	1968
10.576	1955
10.584	1946
10.592	1938
10.6	1931
10.608	1925
10.616	1915
10.624	1906
10.632	1901
10.64	1896
10.648	1890
10.656	1890
10.664	1893
10.672	1895
10.68	1900
10.688	1906
10.696	1905
10.704	1901
10.712	1896
10.72	1887
10.728	1877
10.736	1869
10.744	1861
10.752	1853
10.76	1849
10.768	1851
10.776	1856
10.784	1858
10.792	1855
10.8	1847
10.808	1837
10.816	1826
10.824	1813
10.832	1800
10.84	1790
10.848	1785
10.856	1780
10.864	1774
10.872	1771
10.88	1767
10.888	1758
10.896	1746
10.904	1734
10.912	1725
10.92	1718
10.928	1711
10.936	1714
10.944	1728
10.952	1751
10.96	1785
10.968	1835
10.976	1899
10.984	1970
10.992	2044
11	2120
11.008	2201.00000000002
11.016	2284
11.024	2360.00000000002
11.032	2427
11.04	2487.00000000001
11.048	2537
11.056	2572.00000000001
11.064	2595
11.072	2607
11.08	2607
11.088	2597
11.096	2576
11.104	2542.99999999999
11.112	2504
11.12	2457.99999999999
11.128	2406
11.136	2353.99999999999
11.144	2302
11.152	2249.99999999999
11.16	2198
11.168	2145.99999999999
11.176	2100
11.184	2059.99999999999
11.192	2024
11.2	1992.99999999999
11.208	1965
11.216	1941.99999999999
11.224	1920
11.232	1899
11.24	1883
11.248	1868
11.256	1853
11.264	1840
11.272	1827
11.28	1811
11.288	1793
11.296	1778
11.304	1760
11.312	1741
11.32	1722
11.328	1702
11.336	1683
11.344	1665
11.352	1650
11.36	1635
11.368	1621
11.376	1608
11.384	1595
11.392	1582
11.4	1568
11.408	1558
11.416	1550
11.424	1540
11.432	1528
11.44	1515
11.448	1506
11.456	1498
11.464	1488
11.472	1480
11.48	1472
11.488	1461
11.496	1450
11.504	1438
11.512	1425
11.52	1412
11.528	1402
11.536	1394
11.544	1384
11.552	1372
11.56	1359
11.568	1347
11.576	1338
11.584	1330
11.592	1319
11.6	1310
11.608	1305
11.616	1300
11.624	1294
11.632	1291
11.64	1290
11.648	1292
11.656	1296
11.664	1298
11.672	1299
11.68	1300
11.688	1300
11.696	1304
11.704	1310
11.712	1313
11.72	1315
11.728	1319
11.736	1324
11.744	1329
11.752	1335
11.76	1345
11.768	1360
11.776	1380
11.784	1409
11.792	1446
11.8	1490
11.808	1545
11.816	1609
11.824	1676
11.832	1744
11.84	1828
11.848	1911
11.856	1968
11.864	2008
11.872	2036
11.88	2054
11.888	2063
11.896	2068
11.904	2068
11.912	2064
11.92	2058
11.928	2049
11.936	2037
11.944	2023
11.952	2007
11.96	1988
11.968	1966
11.976	1945
11.984	1925
11.992	1905
12	1890
12.008	1877
12.016	1867
12.024	1860
12.032	1852
12.04	1844
12.048	1836
12.056	1830
12.064	1825
12.072	1821
12.08	1819
12.088	1818
12.096	1817
12.104	1817
12.112	1817
12.12	1817
12.128	1817
12.136	1817
12.144	1817
12.152	1817
12.16	1817
12.168	1817
12.176	1817
12.184	1817
12.192	1817
12.2	1817
12.208	1815
12.216	1812
12.224	1808
12.232	1804
12.24	1800
12.248	1796
12.256	1794
12.264	1792
12.272	1790
12.28	1789
12.288	1789
12.296	1789
12.304	1789
12.312	1787
12.32	1784
12.328	1780
12.336	1774
12.344	1769
12.352	1765
12.36	1761
12.368	1759
12.376	1760
12.384	1762
12.392	1763
12.4	1764
12.408	1764
12.416	1764
12.424	1762
12.432	1759
12.44	1758
12.448	1757
12.456	1759
12.464	1762
12.472	1763
12.48	1764
12.488	1764
12.496	1762
12.504	1759
12.512	1758
12.52	1757
12.528	1759
12.536	1762
12.544	1765
12.552	1771
12.56	1776
12.568	1780
12.576	1785
12.584	1793
12.592	1805
12.6	1821
12.608	1842
12.616	1867
12.624	1900
12.632	1937
12.64	1977
12.648	2019
12.656	2059
12.664	2096
12.672	2130
12.68	2161
12.688	2186
12.696	2203
12.704	2216
12.712	2224
12.72	2228
12.728	2228
12.736	2222
12.744	2212
12.752	2200
12.76	2184
12.768	2162
12.776	2136
12.784	2110
12.792	2087
12.8	2068
12.808	2050
12.816	2035
12.824	2022
12.832	2009
12.84	1999
12.848	1991
12.856	1984
12.864	1976
12.872	1968
12.88	1960
12.888	1952
12.896	1946
12.904	1943
12.912	1940
12.92	1936
12.928	1932
12.936	1926
12.944	1919
12.952	1912
12.96	1902
12.968	1891
12.976	1883
12.984	1876
12.992	1868
13	1860
13.008	1852
13.016	1844
13.024	1834
13.032	1825
13.04	1819
13.048	1814
13.056	1811
13.064	1810
13.072	1809
13.08	1811
13.088	1814
13.096	1815
13.104	1816
13.112	1816
13.12	1816
13.128	1816
13.136	1814
13.144	1813
13.152	1815
13.16	1816
13.168	1816
13.176	1816
13.184	1816
13.192	1816
13.2	1814
13.208	1811
13.216	1810
13.224	1809
13.232	1809
13.24	1809
13.248	1809
13.256	1809
13.264	1809
13.272	1809
13.28	1811
13.288	1814
13.296	1813
13.304	1811
13.312	1810
13.32	1807
13.328	1804
13.336	1802
13.344	1803
13.352	1806
13.36	1809
13.368	1813
13.376	1815
13.384	1816
13.392	1818
13.4	1823
13.408	1832
13.416	1847
13.424	1872
13.432	1904
13.44	1943
13.448	1988
13.456	2033
13.464	2077
13.472	2119
13.48	2159
13.488	2196
13.496	2230
13.504	2259
13.512	2280
13.52	2294
13.528	2301
13.536	2301
13.544	2297
13.552	2291
13.56	2280
13.568	2262
13.576	2240
13.584	2216
13.592	2190
13.6	2161
13.608	2134
13.616	2109
13.624	2087
13.632	2070
13.64	2057
13.648	2047
13.656	2036
13.664	2024
13.672	2014
13.68	2005
13.688	1997
13.696	1991
13.704	1987
13.712	1984
13.72	1982
13.728	1979
13.736	1976
13.744	1972
13.752	1966
13.76	1959
13.768	1950
13.776	1939
13.784	1930
13.792	1921
13.8	1913
13.808	1905
13.816	1897
13.824	1891
13.832	1886
13.84	1880
13.848	1872
13.856	1862
13.864	1851
13.872	1840
13.88	1830
13.888	1791
13.896	1740
13.904	1714
13.912	1701
13.92	1692
13.928	1684
13.936	1677
13.944	1671
13.952	1665
13.96	1655
13.968	1646
13.976	1638
13.984	1628
13.992	1620
14	1616
14.008	1611
14.016	1606
14.024	1603
14.032	1602
14.04	1601
14.048	1601
14.056	1598
14.064	1593
14.072	1588
14.08	1582
14.088	1579
14.096	1578
14.104	1580
14.112	1584
14.12	1589
14.128	1595
14.136	1598
14.144	1599
14.152	1600
14.16	1600
14.168	1603
14.176	1608
14.184	1613
14.192	1622
14.2	1636
14.208	1656
14.216	1678.00000000001
14.224	1704
14.232	1742.00000000001
14.24	1792
14.248	1851.00000000001
14.256	1919
14.264	1990.00000000002
14.272	2062
14.28	2133.00000000002
14.288	2200
14.296	2264.00000000001
14.304	2327
14.312	2387.00000000001
14.32	2436
14.328	2469.00000000001
14.336	2492
14.344	2506
14.352	2510
14.36	2503
14.368	2491
14.376	2472
14.384	2443
14.392	2408
14.4	2365
14.408	2319
14.416	2274
14.424	2232
14.432	2193
14.44	2158
14.448	2127
14.456	2103
14.464	2088
14.472	2080
14.48	2073
14.488	2067
14.496	2064
14.504	2059
14.512	2054
14.52	2051
14.528	2053
14.536	2057
14.544	2062
14.552	2070
14.56	2077
14.568	2081
14.576	2080
14.584	2073
14.592	2067
14.6	2061
14.608	2052
14.616	2044
14.624	2037
14.632	2028
14.64	2020
14.648	2012
14.656	2004
14.664	2000
14.672	1998
14.68	1997
14.688	1997
14.696	1994
14.704	1989
14.712	1984
14.72	1975
14.728	1965
14.736	1957
14.744	1950
14.752	1943
14.76	1940
14.768	1938
14.776	1937
14.784	1937
14.792	1937
14.8	1934
14.808	1929
14.816	1924
14.824	1918
14.832	1912
14.84	1906
14.848	1903
14.856	1902
14.864	1904
14.872	1905
14.88	1903
14.888	1902
14.896	1901
14.904	1901
14.912	1901
14.92	1901
14.928	1904
14.936	1908
14.944	1913
14.952	1922
14.96	1929
14.968	1936
14.976	1945
14.984	1953
14.992	1960
15	1969
15.008	1984
15.016	2004
15.024	2026.00000000001
15.032	2052
15.04	2087.00000000001
15.048	2133
15.056	2190.00000000001
15.064	2259
15.072	2338.00000000002
15.08	2420
15.088	2504.00000000002
15.096	2587
15.104	2666.00000000002
15.112	2739
15.12	2801.00000000001
15.128	2848
15.136	2881.00000000001
15.144	2901
15.152	2911
15.16	2909
15.168	2895
15.176	2876
15.184	2853.99999999999
15.192	2827
15.2	2791.99999999999
15.208	2750
15.216	2700.99999999999
15.224	2645
15.232	2585.99999999999
15.24	2528
15.248	2473.99999999999
15.256	2426
15.264	2382.99999999999
15.272	2343
15.28	2307.99999999999
15.288	2278
15.296	2252.99999999999
15.304	2231
15.312	2207.99999999999
15.32	2184
15.328	2159.99999999999
15.336	2138
15.344	2117
15.352	2098
15.36	2085
15.368	2076
15.376	2065
15.384	2054
15.392	2042
15.4	2026
15.408	2008
15.416	1990
15.424	1969
15.432	1950
15.44	1931
15.448	1912
15.456	1892
15.464	1870
15.472	1847
15.48	1827
15.488	1807
15.496	1787
15.504	1768
15.512	1749
15.52	1731
15.528	1716
15.536	1705
15.544	1697
15.552	1690
15.56	1680
15.568	1672
15.576	1665
15.584	1655
15.592	1643
15.6	1634
15.608	1629
15.616	1624
15.624	1618
15.632	1615
15.64	1611
15.648	1606
15.656	1600
15.664	1591
15.672	1584
15.68	1580
15.688	1578
15.696	1577
15.704	1577
15.712	1577
15.72	1577
15.728	1577
15.736	1574
15.744	1569
15.752	1564
15.76	1555
15.768	1544
15.776	1534
15.784	1526
15.792	1519
15.8	1516
15.808	1517
15.816	1521
15.824	1527
15.832	1534
15.84	1540
15.848	1552
15.856	1570
15.864	1594
15.872	1631
15.88	1678
15.888	1729
15.896	1786
15.904	1848
15.912	1920
15.92	1993
15.928	2058
15.936	2075
15.944	2064
15.952	2070
15.96	2079
15.968	2088
15.976	2094
15.984	2097
15.992	2097
16	2091
16.008	2080
16.016	2063.99999999999
16.024	2042
16.032	2017
16.04	1993
16.048	1968.99999999999
16.056	1945
16.064	1923
16.072	1906
16.08	1890.99999999999
16.088	1878
16.096	1867
16.104	1856
16.112	1844
16.12	1834
16.128	1825
16.136	1817
16.144	1809
16.152	1801
16.16	1793
16.168	1785
16.176	1777
16.184	1769
16.192	1761
16.2	1753
16.208	1745
16.216	1737
16.224	1730
16.232	1725
16.24	1723
16.248	1722
16.256	1719
16.264	1716
16.272	1714
16.28	1713
16.288	1711
16.296	1708
16.304	1706
16.312	1705
16.32	1705
16.328	1705
16.336	1705
16.344	1705
16.352	1705
16.36	1705
16.368	1705
16.376	1707
16.384	1710
16.392	1711
16.4	1712
16.408	1712
16.416	1712
16.424	1712
16.432	1712
16.44	1710
16.448	1707
16.456	1708
16.464	1710
16.472	1711
16.48	1712
16.488	1712
16.496	1714
16.504	1717
16.512	1719
16.52	1720
16.528	1720
16.536	1720
16.544	1720
16.552	1720
16.56	1720
16.568	1720
16.576	1720
16.584	1720
16.592	1720
16.6	1720
16.608	1720
16.616	1720
16.624	1720
16.632	1720
16.64	1720
16.648	1720
16.656	1720
16.664	1721
16.672	1727
16.68	1738
16.688	1755
16.696	1780
16.704	1810
16.712	1847
16.72	1892
16.728	1938
16.736	1981
16.744	2023
16.752	2062
16.76	2097
16.768	2128
16.776	2152
16.784	2170
16.792	2183
16.8	2192
16.808	2194
16.816	2191
16.824	2184
16.832	2171
16.84	2154
16.848	2133
16.856	2109
16.864	2083
16.872	2058
16.88	2033
16.888	2009
16.896	1989
16.904	1975
16.912	1964
16.92	1954
16.928	1945
16.936	1939
16.944	1936
16.952	1932
16.96	1928
16.968	1924
16.976	1920
16.984	1916
16.992	1912
17	1908
17.008	1904
17.016	1900
17.024	1896
17.032	1892
17.04	1886
17.048	1879
17.056	1872
17.064	1862
17.072	1851
17.08	1842
17.088	1833
17.096	1825
17.104	1817
17.112	1809
17.12	1801
17.128	1795
17.136	1788
17.144	1778
17.152	1769
17.16	1761
17.168	1751
17.176	1740
17.184	1731
17.192	1726
17.2	1723
17.208	1722
17.216	1721
17.224	1721
17.232	1721
17.24	1721
17.248	1719
17.256	1718
17.264	1719
17.272	1720
17.28	1720
17.288	1720
17.296	1720
17.304	1720
17.312	1720
17.32	1720
17.328	1720
17.336	1720
17.344	1720
17.352	1720
17.36	1720
17.368	1720
17.376	1720
17.384	1720
17.392	1720
17.4	1720
17.408	1720
17.416	1720
17.424	1720
17.432	1720
17.44	1720
17.448	1720
17.456	1721
17.464	1723
17.472	1726
17.48	1733
17.488	1745
17.496	1763
17.504	1788
17.512	1820
17.52	1860
17.528	1902
17.536	1945
17.544	1991
17.552	2036
17.56	2078
17.568	2118
17.576	2155
17.584	2186
17.592	2209
17.6	2227
17.608	2240
17.616	2246
17.624	2245
17.632	2239
17.64	2228
17.648	2212
17.656	2193
17.664	2173
17.672	2149
17.68	2121
17.688	2093
17.696	2067
17.704	2042
17.712	2019
17.72	2000
17.728	1984
17.736	1974
17.744	1969
17.752	1965
17.76	1961
17.768	1957
17.776	1953
17.784	1951
17.792	1950
17.8	1949
17.808	1949
17.816	1947
17.824	1944
17.832	1940
17.84	1934
17.848	1929
17.856	1925
17.864	1921
17.872	1917
17.88	1911
17.888	1906
17.896	1901
17.904	1895
17.912	1888
17.92	1880
17.928	1872
17.936	1864
17.944	1858
17.952	1853
17.96	1847
17.968	1838
17.976	1827
17.984	1805
17.992	1776
18	1755
18.008	1739
18.016	1723.99999999999
18.024	1712
18.032	1703
18.04	1693
18.048	1681.99999999999
18.056	1670
18.064	1657
18.072	1644
18.08	1634
18.088	1629
18.096	1627
18.104	1626
18.112	1625
18.12	1625
18.128	1625
18.136	1625
18.144	1625
18.152	1625
18.16	1625
18.168	1625
18.176	1625
18.184	1625
18.192	1625
18.2	1625
18.208	1625
18.216	1625
18.224	1625
18.232	1625
18.24	1625
18.248	1625
18.256	1625
18.264	1625
18.272	1625
18.28	1625
18.288	1628
18.296	1636
18.304	1650.00000000001
18.312	1676
18.32	1718
18.328	1771
18.336	1836.00000000003
18.344	1909
18.352	1985
18.36	2062
18.368	2138.00000000003
18.376	2211
18.384	2280
18.392	2340
18.4	2386.00000000002
18.408	2421
18.416	2449
18.424	2467
18.432	2476
18.44	2476
18.448	2466
18.456	2449
18.464	2425
18.472	2393
18.48	2358
18.488	2318
18.496	2272
18.504	2223
18.512	2177
18.52	2138
18.528	2105
18.536	2077
18.544	2053
18.552	2034
18.56	2018
18.568	2004
18.576	1994
18.584	1986
18.592	1975
18.6	1966
18.608	1961
18.616	1959
18.624	1958
18.632	1957
18.64	1957
18.648	1957
18.656	1957
18.664	1957
18.672	1954
18.68	1946
18.688	1939
18.696	1933
18.704	1924
18.712	1916
18.72	1912
18.728	1910
18.736	1909
18.744	1912
18.752	1916
18.76	1921
18.768	1927
18.776	1930
18.784	1928
18.792	1924
18.8	1922
18.808	1918
18.816	1913
18.824	1911
18.832	1910
18.84	1909
18.848	1912
18.856	1916
18.864	1915
18.872	1912
18.88	1909
18.888	1909
18.896	1909
18.904	1909
18.912	1905
18.92	1899
18.928	1893
18.936	1887
18.944	1881
18.952	1875
18.96	1872
18.968	1873
18.976	1877
18.984	1879
18.992	1880
19	1880
19.008	1880
19.016	1877
19.024	1873
19.032	1865
19.04	1860
19.048	1858
19.056	1860
19.064	1864
19.072	1869
19.08	1882.00000000001
19.088	1901
19.096	1930
19.104	1970
19.112	2019.00000000003
19.12	2116
19.128	2197
19.136	2289
19.144	2433.00000000005
19.152	2525
19.16	2616
19.168	2700
19.176	2800.00000000003
19.184	2851
19.192	2891
19.2	2936
19.208	2952
19.216	2957
19.224	2954
19.232	2939
19.24	2915.99999999999
19.248	2885
19.256	2847
19.264	2806
19.272	2759.99999999998
19.28	2708
19.288	2653
19.296	2603
19.304	2558.99999999998
19.312	2518
19.32	2478
19.328	2445
19.336	2421.99999999999
19.344	2404
19.352	2386
19.36	2367
19.368	2347.99999999999
19.376	2329
19.384	2310
19.392	2290
19.4	2273.99999999999
19.408	2260
19.416	2247
19.424	2234
19.432	2216.99999999999
19.44	2197
19.448	2174
19.456	2149
19.464	2124
19.472	2098
19.48	2069
19.488	2042
19.496	2022
19.504	2006
19.512	1992
19.52	1978
19.528	1964
19.536	1951
19.544	1942
19.552	1934
19.56	1924
19.568	1916
19.576	1908
19.584	1897
19.592	1886
19.6	1874
19.608	1862
19.616	1849
19.624	1833
19.632	1816
19.64	1797
19.648	1778
19.656	1759
19.664	1741
19.672	1722
19.68	1702
19.688	1686
19.696	1668
19.704	1649
19.712	1637
19.72	1631
19.728	1628
19.736	1626
19.744	1625
19.752	1625
19.76	1625
19.768	1625
19.776	1622
19.784	1617
19.792	1615
19.8	1611
19.808	1606
19.816	1603
19.824	1602
19.832	1601
19.84	1601
19.848	1601
19.856	1601
19.864	1601
19.872	1604
19.88	1608
19.888	1613
19.896	1619
19.904	1625
19.912	1638
19.92	1660
19.928	1693
19.936	1739
19.944	1797
19.952	1865
19.96	1935
19.968	2002
19.976	2067
19.984	2128
19.992	2180
20	2166
20.008	2113
20.016	2092.99999999999
20.024	2085
20.032	2081
20.04	2075
20.048	2066
20.056	2053
20.064	2034
20.072	2009
20.08	1980.99999999999
20.088	1950
20.096	1917
20.104	1887
20.112	1860.99999999999
20.12	1837
20.128	1817
20.136	1801
20.144	1784.99999999999
20.152	1770
20.16	1757
20.168	1747
20.176	1740
20.184	1734
20.192	1727
20.2	1722
20.208	1719
20.216	1716
20.224	1712
20.232	1710
20.24	1707
20.248	1704
20.256	1700
20.264	1694
20.272	1687
20.28	1680
20.288	1671
20.296	1662
20.304	1653
20.312	1645
20.32	1637
20.328	1629
20.336	1623
20.344	1620
20.352	1618
20.36	1617
20.368	1617
20.376	1617
20.384	1617
20.392	1617
20.4	1617
20.408	1617
20.416	1615
20.424	1612
20.432	1608
20.44	1604
20.448	1602
20.456	1601
20.464	1599
20.472	1596
20.48	1596
20.488	1598
20.496	1599
20.504	1600
20.512	1600
20.52	1600
20.528	1600
20.536	1600
20.544	1600
20.552	1600
20.56	1600
20.568	1602
20.576	1605
20.584	1609
20.592	1613
20.6	1615
20.608	1616
20.616	1616
20.624	1616
20.632	1616
20.64	1616
20.648	1616
20.656	1616
20.664	1618
20.672	1621
20.68	1623
20.688	1626
20.696	1629
20.704	1631
20.712	1632
20.72	1634
20.728	1641
20.736	1656
20.744	1680
20.752	1713
20.76	1751
20.768	1793
20.776	1837
20.784	1880
20.792	1922
20.8	1961
20.808	1998
20.816	2031
20.824	2060
20.832	2083
20.84	2100
20.848	2110
20.856	2113
20.864	2110
20.872	2101
20.88	2087
20.888	2068
20.896	2043
20.904	2014
20.912	1983
20.92	1951
20.928	1920
20.936	1896
20.944	1880
20.952	1868
20.96	1860
20.968	1854
20.976	1846
20.984	1835
20.992	1824
21	1814
21.008	1807
21.016	1802
21.024	1797
21.032	1795
21.04	1794
21.048	1791
21.056	1788
21.064	1784
21.072	1778
21.08	1773
21.088	1769
21.096	1762
21.104	1753
21.112	1745
21.12	1737
21.128	1729
21.136	1721
21.144	1713
21.152	1705
21.16	1697
21.168	1689
21.176	1683
21.184	1678
21.192	1670
21.2	1661
21.208	1653
21.216	1643
21.224	1632
21.232	1624
21.24	1620
21.248	1618
21.256	1617
21.264	1617
21.272	1617
21.28	1617
21.288	1617
21.296	1617
21.304	1617
21.312	1617
21.32	1617
21.328	1617
21.336	1617
21.344	1617
21.352	1617
21.36	1617
21.368	1617
21.376	1617
21.384	1617
21.392	1617
21.4	1617
21.408	1617
21.416	1617
21.424	1615
21.432	1612
21.44	1610
21.448	1607
21.456	1606
21.464	1607
21.472	1610
21.48	1615
21.488	1620
21.496	1622
21.504	1623
21.512	1624
21.52	1624
21.528	1626
21.536	1633
21.544	1650
21.552	1675
21.56	1707
21.568	1746
21.576	1790
21.584	1835
21.592	1881
21.6	1927
21.608	1973
21.616	2019
21.624	2063
21.632	2102
21.64	2131
21.648	2152
21.656	2164
21.664	2168
21.672	2166
21.68	2159
21.688	2148
21.696	2131
21.704	2110
21.712	2085
21.72	2056
21.728	2026
21.736	1997
21.744	1968
21.752	1940
21.76	1916
21.768	1896
21.776	1880
21.784	1866
21.792	1852
21.8	1840
21.808	1830
21.816	1821
21.824	1815
21.832	1810
21.84	1805
21.848	1803
21.856	1802
21.864	1799
21.872	1796
21.88	1792
21.888	1784
21.896	1774
21.904	1764
21.912	1754
21.92	1745
21.928	1739
21.936	1734
21.944	1727
21.952	1720
21.96	1710
21.968	1699
21.976	1690
21.984	1681
21.992	1672
22	1664
22.008	1658
22.016	1651
22.024	1644
22.032	1634
22.04	1625
22.048	1627
22.056	1634
22.064	1637
22.072	1639
22.08	1640
22.088	1640
22.096	1637
22.104	1633
22.112	1631
22.12	1630
22.128	1629
22.136	1629
22.144	1632
22.152	1636
22.16	1638
22.168	1639
22.176	1640
22.184	1640
22.192	1640
22.2	1640
22.208	1640
22.216	1640
22.224	1640
22.232	1640
22.24	1640
22.248	1637
22.256	1633
22.264	1631
22.272	1633
22.28	1637
22.288	1639
22.296	1640
22.304	1640
22.312	1640
22.32	1640
22.328	1640
22.336	1640
22.344	1646
22.352	1661
22.36	1688
22.368	1727.00000000002
22.376	1779
22.384	1843
22.392	1917
22.4	1999.00000000004
22.408	2081
22.416	2164
22.424	2247
22.432	2324.00000000003
22.44	2387
22.448	2438
22.456	2476
22.464	2501.00000000001
22.472	2517
22.48	2525
22.488	2523
22.496	2509.99999999999
22.504	2487
22.512	2456
22.52	2421
22.528	2382
22.536	2336
22.544	2287
22.552	2234
22.56	2179
22.568	2130
22.576	2089
22.584	2059
22.592	2037
22.6	2020
22.608	2005
22.616	1988
22.624	1969
22.632	1954
22.64	1937
22.648	1919
22.656	1900
22.664	1881
22.672	1866
22.68	1855
22.688	1846
22.696	1834
22.704	1825
22.712	1818
22.72	1808
22.728	1793
22.736	1776
22.744	1761
22.752	1748
22.76	1731
22.768	1710
22.776	1690
22.784	1671
22.792	1656
22.8	1648
22.808	1644
22.816	1642
22.824	1641
22.832	1641
22.84	1641
22.848	1641
22.856	1638
22.864	1629
22.872	1621
22.88	1617
22.888	1615
22.896	1614
22.904	1617
22.912	1623
22.92	1629
22.928	1635
22.936	1638
22.944	1639
22.952	1640
22.96	1640
22.968	1640
22.976	1640
22.984	1640
22.992	1640
23	1640
23.008	1640
23.016	1640
23.024	1640
23.032	1643
23.04	1648
23.048	1653
23.056	1659
23.064	1662
23.072	1663
23.08	1664
23.088	1664
23.096	1661
23.104	1657
23.112	1652
23.12	1649
23.128	1651
23.136	1658
23.144	1673.00000000001
23.152	1697
23.16	1729
23.168	1771
23.176	1824.00000000003
23.184	1885
23.192	1951
23.2	2022
23.208	2102.00000000004
23.216	2190
23.224	2285
23.232	2381
23.24	2474.00000000004
23.248	2559
23.256	2634
23.264	2699
23.272	2751.00000000002
23.28	2787
23.288	2808
23.296	2815
23.304	2813
23.312	2799
23.32	2772
23.328	2739
23.336	2700.99999999998
23.344	2656
23.352	2607
23.36	2558
23.368	2507.99999999998
23.376	2460
23.384	2420
23.392	2387
23.4	2357.99999999999
23.408	2334
23.416	2312
23.424	2288
23.432	2266.99999999999
23.44	2247
23.448	2227
23.456	2211
23.464	2200
23.472	2191
23.48	2181
23.488	2173
23.496	2165
23.504	2154
23.512	2139
23.52	2123
23.528	2107.99999999999
23.536	2093
23.544	2080
23.552	2067
23.56	2055
23.568	2046
23.576	2037
23.584	2029
23.592	2022
23.6	2012
23.608	2004
23.616	1997
23.624	1991
23.632	1985
23.64	1975
23.648	1963
23.656	1951
23.664	1936
23.672	1918
23.68	1902
23.688	1888
23.696	1875
23.704	1863
23.712	1850
23.72	1836
23.728	1823
23.736	1808
23.744	1790
23.752	1774
23.76	1760
23.768	1747
23.776	1735
23.784	1722
23.792	1708
23.8	1695
23.808	1683
23.816	1671
23.824	1659
23.832	1650
23.84	1645
23.848	1643
23.856	1642
23.864	1641
23.872	1641
23.88	1641
23.888	1641
23.896	1641
23.904	1641
23.912	1641
23.92	1641
23.928	1641
23.936	1641
23.944	1641
23.952	1641
23.96	1641
23.968	1641
23.976	1644
23.984	1654
23.992	1671
24	1699
24.008	1742
24.016	1795.00000000003
24.024	1857
24.032	1927
24.04	1998
24.048	2065.00000000003
24.056	2127
24.064	2183
24.072	2237
24.08	2283.00000000002
24.088	2319
24.096	2293
24.104	2229
24.112	2196.99999999999
24.12	2177
24.128	2155
24.136	2129
24.144	2101.99999999999
24.152	2070
24.16	2033
24.168	1996
24.176	1957.99999999998
24.184	1922
24.192	1890
24.2	1860
24.208	1832.99999999999
24.216	1811
24.224	1791
24.232	1771
24.24	1753.99999999999
24.248	1738
24.256	1723
24.264	1709
24.272	1694.99999999999
24.28	1683
24.288	1670
24.296	1659
24.304	1651
24.312	1642
24.32	1633
24.328	1627
24.336	1624
24.344	1619
24.352	1612
24.36	1604
24.368	1598
24.376	1592
24.384	1586
24.392	1581
24.4	1577
24.408	1573
24.416	1569
24.424	1564
24.432	1556
24.44	1550
24.448	1547
24.456	1544
24.464	1540
24.472	1538
24.48	1534
24.488	1529
24.496	1527
24.504	1524
24.512	1520
24.52	1518
24.528	1517
24.536	1514
24.544	1509
24.552	1505
24.56	1501
24.568	1497
24.576	1493
24.584	1488
24.592	1480
24.6	1472
24.608	1466
24.616	1460
24.624	1454
24.632	1451
24.64	1450
24.648	1449
24.656	1449
24.664	1449
24.672	1449
24.68	1449
24.688	1449
24.696	1449
24.704	1447
24.712	1444
24.72	1440
24.728	1436
24.736	1434
24.744	1433
24.752	1433
24.76	1435
24.768	1438
24.776	1441
24.784	1445
24.792	1452
24.8	1462
24.808	1476
24.816	1498
24.824	1528
24.832	1564
24.84	1603
24.848	1646
24.856	1693
24.864	1745
24.872	1800
24.88	1851
24.888	1893
24.896	1928
24.904	1959
24.912	1985
24.92	2003
24.928	2014
24.936	2017
24.944	2012
24.952	1999
24.96	1981
24.968	1958
24.976	1932
24.984	1907
24.992	1883
25	1857
25.008	1830
25.016	1803.99999999999
25.024	1782
25.032	1762
25.04	1744
25.048	1729.99999999999
25.056	1719
25.064	1709
25.072	1699
25.08	1690
25.088	1683
25.096	1677
25.104	1669
25.112	1663
25.12	1658
25.128	1650
25.136	1643
25.144	1638
25.152	1631
25.16	1626
25.168	1623
25.176	1622
25.184	1621
25.192	1621
25.2	1621
25.208	1618
25.216	1611
25.224	1604
25.232	1598
25.24	1595
25.248	1594
25.256	1595
25.264	1598
25.272	1599
25.28	1600
25.288	1598
25.296	1595
25.304	1594
25.312	1593
25.32	1593
25.328	1593
25.336	1593
25.344	1593
25.352	1593
25.36	1593
25.368	1593
25.376	1593
25.384	1593
25.392	1595
25.4	1598
25.408	1599
25.416	1600
25.424	1600
25.432	1600
25.44	1598
25.448	1595
25.456	1594
25.464	1593
25.472	1593
25.48	1593
25.488	1595
25.496	1598
25.504	1599
25.512	1600
25.52	1598
25.528	1595
25.536	1594
25.544	1593
25.552	1590
25.56	1588
25.568	1590
25.576	1593
25.584	1599
25.592	1607
25.6	1614
25.608	1619
25.616	1626
25.624	1636
25.632	1653
25.64	1678
25.648	1711
25.656	1754
25.664	1806
25.672	1861
25.68	1912
25.688	1960
25.696	2008
25.704	2051
25.712	2090
25.72	2123
25.728	2149
25.736	2172
25.744	2188
25.752	2196
25.76	2195
25.768	2185
25.776	2171
25.784	2152
25.792	2125
25.8	2094
25.808	2059
25.816	2023
25.824	1989
25.832	1958
25.84	1932
25.848	1914
25.856	1901
25.864	1890
25.872	1879
25.88	1869
25.888	1859
25.896	1850
25.904	1840
25.912	1832
25.92	1826
25.928	1821
25.936	1817
25.944	1810
25.952	1803
25.96	1798
25.968	1791
25.976	1783
25.984	1776
25.992	1770
26	1763
26.008	1755
26.016	1742.99999999999
26.024	1730
26.032	1719
26.04	1709
26.048	1699
26.056	1690
26.064	1680
26.072	1670
26.08	1661
26.088	1650
26.096	1637
26.104	1626
26.112	1617
26.12	1616
26.128	1618
26.136	1619
26.144	1667.00000000003
26.152	1738
26.16	1770
26.168	1783
26.176	1790
26.184	1793
26.192	1795
26.2	1796
26.208	1796
26.216	1796
26.224	1796
26.232	1796
26.24	1796
26.248	1796
26.256	1796
26.264	1796
26.272	1796
26.28	1799
26.288	1804
26.296	1809
26.304	1815
26.312	1818
26.32	1819
26.328	1820
26.336	1820
26.344	1820
26.352	1820
26.36	1820
26.368	1820
26.376	1820
26.384	1820
26.392	1820
26.4	1820
26.408	1820
26.416	1822
26.424	1828
26.432	1837.00000000001
26.44	1853
26.448	1877
26.456	1911
26.464	1958.00000000002
26.472	2014
26.48	2075
26.488	2141
26.496	2207.00000000003
26.504	2270
26.512	2328
26.52	2379
26.528	2424.00000000002
26.536	2460
26.544	2484
26.552	2496
26.56	2502
26.568	2502
26.576	2496
26.584	2485
26.592	2468.99999999999
26.6	2447
26.608	2417
26.616	2380
26.624	2338.99999999998
26.632	2297
26.64	2257
26.648	2221
26.656	2189
26.664	2165
26.672	2148
26.68	2133
26.688	2121
26.696	2110
26.704	2098
26.712	2086
26.72	2075
26.728	2068
26.736	2061
26.744	2055
26.752	2049
26.76	2040
26.768	2030
26.776	2020
26.784	2009
26.792	1998
26.8	1984
26.808	1969
26.816	1957
26.824	1946
26.832	1934
26.84	1920
26.848	1905
26.856	1892
26.864	1879
26.872	1868
26.88	1854
26.888	1839
26.896	1827
26.904	1815
26.912	1804
26.92	1793
26.928	1785
26.936	1781
26.944	1776
26.952	1770
26.96	1764
26.968	1758
26.976	1753
26.984	1749
26.992	1744
27	1738
27.008	1732
27.016	1726
27.024	1723
27.032	1722
27.04	1721
27.048	1721
27.056	1721
27.064	1721
27.072	1721
27.08	1721
27.088	1721
27.096	1724
27.104	1728
27.112	1730
27.12	1731
27.128	1735
27.136	1740
27.144	1744
27.152	1748
27.16	1750
27.168	1751
27.176	1755
27.184	1760
27.192	1762
27.2	1766
27.208	1771
27.216	1779
27.224	1794
27.232	1809
27.24	1827.00000000001
27.248	1853
27.256	1888
27.264	1935
27.272	1995.00000000003
27.28	2060
27.288	2127
27.296	2202
27.304	2280.00000000003
27.312	2357
27.32	2432
27.328	2499
27.336	2557.00000000002
27.344	2606
27.352	2647
27.36	2678
27.368	2698.00000000001
27.376	2711
27.384	2715
27.392	2709
27.4	2695.99999999999
27.408	2675
27.416	2645
27.424	2609
27.432	2569.99999999998
27.44	2528
27.448	2487
27.456	2450
27.464	2414.99999999999
27.472	2385
27.48	2359
27.488	2335
27.496	2314.99999999999
27.504	2296
27.512	2278
27.52	2261
27.528	2244.99999999999
27.536	2232
27.544	2216
27.552	2200
27.56	2186.99999999999
27.568	2175
27.576	2166
27.584	2158
27.592	2151
27.6	2146
27.608	2141
27.616	2136
27.624	2130
27.632	2127
27.64	2126
27.648	2125
27.656	2122
27.664	2117
27.672	2113
27.68	2106
27.688	2096
27.696	2088
27.704	2081
27.712	2075
27.72	2072
27.728	2068
27.736	2064
27.744	2059
27.752	2051
27.76	2044
27.768	2037
27.776	2031
27.784	2028
27.792	2026
27.8	2025
27.808	2028
27.816	2032
27.824	2034
27.832	2035
27.84	2036
27.848	2036
27.856	2036
27.864	2033
27.872	2029
27.88	2025
27.888	2021
27.896	2019
27.904	2018
27.912	2017
27.92	2017
27.928	2019
27.936	2022
27.944	2023
27.952	2024
27.96	2022
27.968	2019
27.976	2015
27.984	2007
27.992	1997
28	1989
28.008	1983
28.016	1978
28.024	1975
28.032	1974
28.04	1975
28.048	1984.00000000001
28.056	1999
28.064	2021
28.072	2052
28.08	2091.00000000002
28.088	2138
28.096	2191
28.104	2253
28.112	2322.00000000003
28.12	2392
28.128	2460
28.136	2527
28.144	2589.00000000003
28.152	2641
28.16	2686
28.168	2722
28.176	2748.00000000001
28.184	2767
28.192	2704
28.2	2591
28.208	2524.99999999998
28.216	2478
28.224	2436
28.232	2395
28.24	2351.99999999998
28.248	2309
28.256	2270
28.264	2232
28.272	2196.99999999998
28.28	2164
28.288	2131
28.296	2101
28.304	2069.99999999999
28.312	2038
28.32	2008
28.328	1982
28.336	1961.99999999999
28.344	1945
28.352	1931
28.36	1919
28.368	1908
28.376	1898
28.384	1888
28.392	1876
28.4	1863.99999999999
28.408	1851
28.416	1838
28.424	1824
28.432	1807.99999999999
28.44	1793
28.448	1779
28.456	1763
28.464	1745.99999999999
28.472	1730
28.48	1715
28.488	1702
28.496	1689.99999999999
28.504	1679
28.512	1670
28.52	1663
28.528	1658
28.536	1650
28.544	1641
28.552	1635
28.56	1632
28.568	1628
28.576	1624
28.584	1622
28.592	1621
28.6	1621
28.608	1618
28.616	1611
28.624	1604
28.632	1596
28.64	1587
28.648	1580
28.656	1574
28.664	1569
28.672	1565
28.68	1561
28.688	1559
28.696	1558
28.704	1554
28.712	1549
28.72	1547
28.728	1546
28.736	1545
28.744	1545
28.752	1545
28.76	1545
28.768	1545
28.776	1545
28.784	1545
28.792	1543
28.8	1540
28.808	1538
28.816	1537
28.824	1539
28.832	1542
28.84	1546
28.848	1551
28.856	1556
28.864	1562
28.872	1570
28.88	1581
28.888	1598
28.896	1620
28.904	1647
28.912	1679
28.92	1715
28.928	1758
28.936	1807
28.944	1859
28.952	1910
28.96	1956
28.968	1997
28.976	2034
28.984	2064
28.992	2086
29	2101
29.008	2109
29.016	2111
29.024	2110
29.032	2102
29.04	2086
29.048	2063.99999999999
29.056	2039
29.064	2014
29.072	1988
29.08	1962.99999999999
29.088	1939
29.096	1916
29.104	1897
29.112	1880.99999999999
29.12	1867
29.128	1855
29.136	1844
29.144	1834
29.152	1827
29.16	1821
29.168	1815
29.176	1810
29.184	1805
29.192	1803
29.2	1800
29.208	1796
29.216	1790
29.224	1785
29.232	1779
29.24	1767
29.248	1761
29.256	1753
29.264	1741
29.272	1733
29.28	1722
29.288	1709
29.296	1699
29.304	1689
29.312	1681
29.32	1677
29.328	1675
29.336	1672
29.344	1668
29.352	1666
29.36	1661
29.368	1658
29.376	1654
29.384	1650
29.392	1649
29.4	1651
29.408	1654
29.416	1655
29.424	1654
29.432	1651
29.44	1650
29.448	1649
29.456	1649
29.464	1649
29.472	1649
29.48	1651
29.488	1654
29.496	1655
29.504	1656
29.512	1658
29.52	1661
29.528	1663
29.536	1666
29.544	1669
29.552	1674
29.56	1679
29.568	1682
29.576	1683
29.584	1684
29.592	1681
29.6	1680
29.608	1682
29.616	1683
29.624	1684
29.632	1684
29.64	1684
29.648	1684
29.656	1686
29.664	1691
29.672	1701
29.68	1717
29.688	1741.00000000001
29.696	1772
29.704	1809
29.712	1855
29.72	1904
29.728	1951
29.736	1997
29.744	2043
29.752	2085
29.76	2122
29.768	2153
29.776	2180
29.784	2203
29.792	2220
29.8	2230
29.808	2235
29.816	2233
29.824	2223
29.832	2207
29.84	2185
29.848	2158
29.856	2128
29.864	2097
29.872	2066
29.88	2038
29.888	2013
29.896	1992
29.904	1976
29.912	1964
29.92	1953
29.928	1943
29.936	1934
29.944	1927
29.952	1924
29.96	1922
29.968	1921
29.976	1921
29.984	1921
29.992	1919
30	1916
30.008	1914
30.016	1913
30.024	1910
30.032	1905
30.04	1901
30.048	1895
30.056	1887
30.064	1878
30.072	1869
30.08	1863
30.088	1858
30.096	1853
30.104	1848
30.112	1840
30.12	1832
30.128	1823
30.136	1814
30.144	1805
30.152	1797
30.16	1788
30.168	1778
30.176	1769
30.184	1760
30.192	1750
30.2	1741
30.208	1746
30.216	1757
30.224	1759
30.232	1753
30.24	1745
30.248	1741
30.256	1739
30.264	1738
30.272	1737
30.28	1737
30.288	1737
30.296	1737
30.304	1737
30.312	1737
30.32	1737
30.328	1737
30.336	1737
30.344	1737
30.352	1737
30.36	1737
30.368	1737
30.376	1737
30.384	1737
30.392	1737
30.4	1737
30.408	1737
30.416	1737
30.424	1737
30.432	1737
30.44	1737
30.448	1739
30.456	1745
30.464	1751
30.472	1758
30.48	1767
30.488	1780
30.496	1799.00000000001
30.504	1827
30.512	1865
30.52	1910
30.528	1957.00000000002
30.536	2009
30.544	2063
30.552	2115
30.56	2165.00000000002
30.568	2210
30.576	2245
30.584	2274
30.592	2297.00000000001
30.6	2313
30.608	2323
30.616	2326
30.624	2323
30.632	2313
30.64	2297
30.648	2280
30.656	2259.99999999999
30.664	2235
30.672	2208
30.68	2181
30.688	2154.99999999999
30.696	2130
30.704	2106
30.712	2083
30.72	2064
30.728	2047
30.736	2030
30.744	2015
30.752	2004
30.76	1994
30.768	1984
30.776	1974
30.784	1967
30.792	1964
30.8	1960
30.808	1956
30.816	1954
30.824	1951
30.832	1946
30.84	1939
30.848	1934
30.856	1928
30.864	1920
30.872	1914
30.88	1909
30.888	1903
30.896	1898
30.904	1893
30.912	1887
30.92	1880
30.928	1871
30.936	1862
30.944	1853
30.952	1847
30.96	1842
30.968	1835
30.976	1828
30.984	1817
30.992	1805
31	1795
31.008	1786
31.016	1779
31.024	1774
31.032	1769
31.04	1765
31.048	1758
31.056	1749
31.064	1743
31.072	1740
31.08	1736
31.088	1732
31.096	1728
31.104	1724
31.112	1720
31.12	1716
31.128	1714
31.136	1713
31.144	1713
31.152	1713
31.16	1713
31.168	1713
31.176	1713
31.184	1713
31.192	1713
31.2	1711
31.208	1708
31.216	1706
31.224	1703
31.232	1700
31.24	1700
31.248	1702
31.256	1705
31.264	1711
31.272	1718
31.28	1727
31.288	1739
31.296	1754
31.304	1773.00000000001
31.312	1798
31.32	1828
31.328	1865
31.336	1912.00000000002
31.344	1963
31.352	2015
31.36	2069
31.368	2124.00000000002
31.376	2176
31.384	2225
31.392	2268
31.4	2302.00000000001
31.408	2327
31.416	2344
31.424	2354
31.432	2359
31.44	2358
31.448	2347
31.456	2329
31.464	2306.99999999999
31.472	2283
31.48	2258
31.488	2232
31.496	2205.99999999999
31.504	2180
31.512	2156
31.52	2136
31.528	2117.99999999999
31.536	2098
31.544	2077
31.552	2058
31.56	2038.99999999999
31.568	2024
31.576	2014
31.584	2009
31.592	2007
31.6	2006
31.608	2005
31.616	2005
31.624	2005
31.632	2005
31.64	2005
31.648	2005
31.656	2003
31.664	1998
31.672	1993
31.68	1989
31.688	1985
31.696	1980
31.704	1974
31.712	1971
31.72	1973
31.728	1977
31.736	1979
31.744	1977
31.752	1971
31.76	1966
31.768	1961
31.776	1955
31.784	1950
31.792	1947
31.8	1946
31.808	1945
31.816	1947
31.824	1950
31.832	1949
31.84	1947
31.848	1944
31.856	1940
31.864	1936
31.872	1932
31.88	1930
31.888	1926
31.896	1921
31.904	1919
31.912	1918
31.92	1917
31.928	1917
31.936	1917
31.944	1920
31.952	1924
31.96	1928
31.968	1934
31.976	1939
31.984	1942
31.992	1943
32	1944
32.008	1942
32.016	1939
32.024	1938
32.032	1939
32.04	1942
32.048	1945
32.056	1951
32.064	1958
32.072	1966
32.08	1975
32.088	1986
32.096	1995.00000000001
32.104	2004
32.112	2019
32.12	2042
32.128	2074
32.136	2116
32.144	2167
32.152	2226
32.16	2288.00000000006
32.168	2351
32.176	2413
32.184	2472
32.192	2522
32.2	2562
32.208	2593
32.216	2615
32.224	2631.00000000001
32.232	2639
32.24	2638
32.248	2631
32.256	2580
32.264	2504
32.272	2454
32.28	2417
32.288	2384.99999999997
32.296	2352
32.304	2316
32.312	2278
32.32	2239
32.328	2202
32.336	2169
32.344	2141
32.352	2116.99999999998
32.36	2099
32.368	2084
32.376	2068
32.384	2054
32.392	2041
32.4	2027
32.408	2014
32.416	2000.99999999999
32.424	1989
32.432	1977
32.44	1965
32.448	1953
32.456	1939
32.464	1924
32.472	1910
32.48	1898.99999999999
32.488	1888
32.496	1875
32.504	1864
32.512	1852
32.52	1838
32.528	1825
32.536	1813
32.544	1798.99999999999
32.552	1786
32.56	1773
32.568	1761
32.576	1751
32.584	1740
32.592	1728
32.6	1716
32.608	1701.99999999999
32.616	1687
32.624	1672
32.632	1658
32.64	1647
32.648	1640
32.656	1634
32.664	1629
32.672	1625
32.68	1621
32.688	1617
32.696	1611
32.704	1604
32.712	1598
32.72	1593
32.728	1589
32.736	1585
32.744	1581
32.752	1579
32.76	1578
32.768	1577
32.776	1577
32.784	1577
32.792	1577
32.8	1577
32.808	1577
32.816	1575
32.824	1572
32.832	1568
32.84	1564
32.848	1560
32.856	1556
32.864	1554
32.872	1553
32.88	1555
32.888	1558
32.896	1561
32.904	1567
32.912	1572
32.92	1576
32.928	1584
32.936	1598
32.944	1617
32.952	1639
32.96	1666
32.968	1699
32.976	1738
32.984	1781
32.992	1826
33	1869
33.008	1909
33.016	1945
33.024	1979
33.032	2008.00000000002
33.04	2030
33.048	2047
33.056	2058
33.064	2063
33.072	2062
33.08	2055
33.088	2044
33.096	2025.99999999998
33.104	2003
33.112	1976
33.12	1946
33.128	1917
33.136	1890
33.144	1865
33.152	1845
33.16	1826.99999999999
33.168	1812
33.176	1800
33.184	1790
33.192	1781
33.2	1773
33.208	1763
33.216	1754
33.224	1746.99999999999
33.232	1740
33.24	1734
33.248	1729
33.256	1725
33.264	1721
33.272	1715
33.28	1708
33.288	1699.99999999999
33.296	1692
33.304	1684
33.312	1676
33.32	1668
33.328	1660
33.336	1652
33.344	1646
33.352	1641
33.36	1637
33.368	1635
33.376	1634
33.384	1631
33.392	1628
33.4	1626
33.408	1625
33.416	1625
33.424	1625
33.432	1625
33.44	1627
33.448	1630
33.456	1629
33.464	1627
33.472	1626
33.48	1623
33.488	1620
33.496	1618
33.504	1617
33.512	1615
33.52	1612
33.528	1610
33.536	1609
33.544	1609
33.552	1609
33.56	1611
33.568	1614
33.576	1615
33.584	1616
33.592	1616
33.6	1616
33.608	1616
33.616	1616
33.624	1616
33.632	1616
33.64	1616
33.648	1618
33.656	1621
33.664	1623
33.672	1624
33.68	1624
33.688	1626
33.696	1629
33.704	1633
33.712	1637
33.72	1639
33.728	1640
33.736	1642
33.744	1647
33.752	1656
33.76	1670
33.768	1691
33.776	1720
33.784	1756
33.792	1801
33.8	1849
33.808	1895
33.816	1940
33.824	1982
33.832	2021
33.84	2057
33.848	2089
33.856	2113
33.864	2127
33.872	2134
33.88	2137
33.888	2137
33.896	2133
33.904	2123
33.912	2108
33.92	2088
33.928	2064
33.936	2038
33.944	2011
33.952	1986
33.96	1959
33.968	1934
33.976	1913
33.984	1897
33.992	1885
34	1872
34.008	1858
34.016	1847
34.024	1838
34.032	1830.99999999999
34.04	1826
34.048	1819
34.056	1812
34.064	1806
34.072	1801
34.08	1795
34.088	1790
34.096	1785
34.104	1779
34.112	1772
34.12	1766
34.128	1761
34.136	1755
34.144	1748
34.152	1740
34.16	1731.99999999999
34.168	1724
34.176	1716
34.184	1708
34.192	1700
34.2	1692
34.208	1684
34.216	1676
34.224	1667.99999999999
34.232	1660
34.24	1652
34.248	1646
34.256	1643
34.264	1642
34.272	1641
34.28	1641
34.288	1641
34.296	1641
34.304	1653
34.312	1671
34.32	1680
34.328	1684
34.336	1686
34.344	1687
34.352	1688
34.36	1688
34.368	1688
34.376	1688
34.384	1688
34.392	1688
34.4	1688
34.408	1688
34.416	1688
34.424	1688
34.432	1688
34.44	1688
34.448	1688
34.456	1686
34.464	1683
34.472	1682
34.48	1681
34.488	1683
34.496	1686
34.504	1687
34.512	1690
34.52	1693
34.528	1695
34.536	1696
34.544	1696
34.552	1698
34.56	1705
34.568	1717
34.576	1736
34.584	1762
34.592	1795
34.6	1836
34.608	1880.00000000004
34.616	1927
34.624	1976
34.632	2024
34.64	2072
34.648	2116
34.656	2153
34.664	2183
34.672	2204.00000000001
34.68	2216
34.688	2222
34.696	2223
34.704	2218
34.712	2209
34.72	2198
34.728	2181
34.736	2160.99999999998
34.744	2137
34.752	2109
34.76	2081
34.768	2053
34.776	2025
34.784	1998
34.792	1973
34.8	1954.99999999999
34.808	1944
34.816	1936
34.824	1930
34.832	1925
34.84	1921
34.848	1919
34.856	1916
34.864	1912
34.872	1908
34.88	1902
34.888	1895
34.896	1888
34.904	1880
34.912	1874
34.92	1869
34.928	1863
34.936	1856
34.944	1848
34.952	1840
34.96	1832
34.968	1822
34.976	1811
34.984	1802
34.992	1791
35	1780
35.008	1770
35.016	1758
35.024	1745
35.032	1734.99999999999
35.04	1726
35.048	1715
35.056	1704
35.064	1696
35.072	1692
35.08	1690
35.088	1689
35.096	1689
35.104	1689
35.112	1689
35.12	1689
35.128	1687
35.136	1684
35.144	1682
35.152	1681
35.16	1681
35.168	1681
35.176	1681
35.184	1681
35.192	1679
35.2	1676
35.208	1674
35.216	1675
35.224	1678
35.232	1679
35.24	1682
35.248	1685
35.256	1687
35.264	1688
35.272	1688
35.28	1688
35.288	1688
35.296	1688
35.304	1688
35.312	1688
35.32	1688
35.328	1688
35.336	1688
35.344	1688
35.352	1688
35.36	1688
35.368	1690
35.376	1697
35.384	1709
35.392	1728
35.4	1754
35.408	1787
35.416	1830.00000000004
35.424	1877
35.432	1926
35.44	1975
35.448	2024
35.456	2072
35.464	2116
35.472	2155
35.48	2188.00000000002
35.488	2210
35.496	2223
35.504	2228
35.512	2224
35.52	2214
35.528	2200
35.536	2182
35.544	2160.99999999998
35.552	2139
35.56	2116
35.568	2092
35.576	2068
35.584	2042
35.592	2015
35.6	1991
35.608	1969.99999999998
35.616	1953
35.624	1939
35.632	1928
35.64	1920
35.648	1912
35.656	1906
35.664	1903
35.672	1902
35.68	1901
35.688	1901
35.696	1899
35.704	1896
35.712	1892
35.72	1888
35.728	1884
35.736	1880
35.744	1876
35.752	1872
35.76	1870
35.768	1867
35.776	1864
35.784	1860
35.792	1856
35.8	1852
35.808	1846
35.816	1841
35.824	1837
35.832	1831
35.84	1824
35.848	1816
35.856	1808
35.864	1800
35.872	1794
35.88	1791
35.888	1790
35.896	1789
35.904	1789
35.912	1789
35.92	1787
35.928	1782
35.936	1775
35.944	1768
35.952	1762
35.96	1759
35.968	1760
35.976	1762
35.984	1763
35.992	1764
36	1764
36.008	1764
36.016	1762
36.024	1757
36.032	1753
36.04	1751
36.048	1750
36.056	1749
36.064	1751
36.072	1756
36.08	1760
36.088	1764
36.096	1766
36.104	1765
36.112	1763
36.12	1758
36.128	1753
36.136	1751
36.144	1750
36.152	1751
36.16	1756.00000000001
36.168	1764
36.176	1778
36.184	1797
36.192	1821
36.2	1851
36.208	1888
36.216	1931
36.224	1980.00000000005
36.232	2034
36.24	2093
36.248	2156
36.256	2218
36.264	2277
36.272	2333
36.28	2382
36.288	2421.00000000003
36.296	2449
36.304	2465
36.312	2471
36.32	2470
36.328	2463
36.336	2454
36.344	2443
36.352	2431.99999999999
36.36	2419
36.368	2399
36.376	2373
36.384	2344
36.392	2311
36.4	2277
36.408	2242
36.416	2210.99999999998
36.424	2187
36.432	2168
36.44	2151
36.448	2136
36.456	2124
36.464	2113
36.472	2103
36.48	2093.99999999999
36.488	2085
36.496	2079
36.504	2073
36.512	2065
36.52	2057
36.528	2046
36.536	2033
36.544	2020.99999999999
36.552	2006
36.56	1988
36.568	1970
36.576	1952
36.584	1934
36.592	1919
36.6	1907
36.608	1895.99999999999
36.616	1886
36.624	1874
36.632	1861
36.64	1851
36.648	1842
36.656	1835
36.664	1829
36.672	1820.99999999999
36.68	1813
36.688	1804
36.696	1794
36.704	1787
36.712	1782
36.72	1775
36.728	1767
36.736	1757.99999999999
36.744	1749
36.752	1741
36.76	1732
36.768	1720
36.776	1708
36.784	1695
36.792	1680
36.8	1662.99999999998
36.808	1646
36.816	1630
36.824	1619
36.832	1612
36.84	1606
36.848	1603
36.856	1602
36.864	1601
36.872	1599
36.88	1596
36.888	1594
36.896	1591
36.904	1588
36.912	1583
36.92	1576
36.928	1570
36.936	1565
36.944	1561
36.952	1559
36.96	1558
36.968	1557
36.976	1559
36.984	1562
36.992	1565
37	1572
37.008	1582
37.016	1596
37.024	1614
37.032	1638.00000000002
37.04	1671
37.048	1711
37.056	1756
37.064	1807
37.072	1860
37.08	1909
37.088	1954
37.096	1994.00000000003
37.104	2028
37.112	2054
37.12	2076
37.128	2094
37.136	2105
37.144	2109
37.152	2106
37.16	2094.99999999999
37.168	2077
37.176	2052
37.184	2018
37.192	1978
37.2	1940
37.208	1908
37.216	1879
37.224	1852.99999999998
37.232	1831
37.24	1811
37.248	1792
37.256	1773
37.264	1755
37.272	1739
37.28	1724
37.288	1709.99999999999
37.296	1698
37.304	1687
37.312	1678
37.32	1671
37.328	1666
37.336	1658
37.344	1651
37.352	1645.99999999999
37.36	1639
37.368	1632
37.376	1623
37.384	1616
37.392	1612
37.4	1608
37.408	1604
37.416	1602
37.424	1601
37.432	1601
37.44	1599
37.448	1596
37.456	1594
37.464	1591
37.472	1588
37.48	1586
37.488	1582
37.496	1577
37.504	1575
37.512	1574
37.52	1573
37.528	1573
37.536	1573
37.544	1573
37.552	1573
37.56	1573
37.568	1571
37.576	1568
37.584	1566
37.592	1565
37.6	1565
37.608	1565
37.616	1565
37.624	1565
37.632	1565
37.64	1563
37.648	1560
37.656	1558
37.664	1557
37.672	1557
37.68	1559
37.688	1562
37.696	1563
37.704	1566
37.712	1569
37.72	1569
37.728	1567
37.736	1566
37.744	1565
37.752	1565
37.76	1565
37.768	1565
37.776	1567
37.784	1570
37.792	1574
37.8	1581.00000000001
37.808	1589
37.816	1597
37.824	1606
37.832	1617
37.84	1632
37.848	1650
37.856	1674
37.864	1707.00000000003
37.872	1749
37.88	1797
37.888	1848
37.896	1898
37.904	1946
37.912	1990
37.92	2028
37.928	2058
37.936	2080
37.944	2096
37.952	2106
37.96	2109
37.968	2106
37.976	2097
37.984	2082
37.992	2060
38	2033
38.008	2004
38.016	1973
38.024	1943
38.032	1916.99999999998
38.04	1895
38.048	1875
38.056	1856
38.064	1839
38.072	1826
38.08	1815
38.088	1808
38.096	1800.99999999999
38.104	1795
38.112	1792
38.12	1788
38.128	1784
38.136	1780
38.144	1776
38.152	1772
38.16	1768
38.168	1763
38.176	1758
38.184	1753
38.192	1747
38.2	1737
38.208	1725
38.216	1715
38.224	1705.99999999999
38.232	1696
38.24	1686
38.248	1677
38.256	1669
38.264	1660
38.272	1650
38.28	1641
38.288	1632.99999999999
38.296	1627
38.304	1624
38.312	1619
38.32	1614
38.328	1611
38.336	1608
38.344	1604
38.352	1602
38.36	1601
38.368	1601
38.376	1599
38.384	1596
38.392	1594
38.4	1605
38.408	1623
38.416	1632.00000000001
38.424	1636
38.432	1638
38.44	1639
38.448	1642
38.456	1645
38.464	1647
38.472	1650
38.48	1653
38.488	1658
38.496	1663
38.504	1666
38.512	1667
38.52	1668
38.528	1668
38.536	1668
38.544	1668
38.552	1668
38.56	1668
38.568	1668
38.576	1668
38.584	1668
38.592	1670
38.6	1673
38.608	1675
38.616	1676
38.624	1676
38.632	1678
38.64	1686
38.648	1700
38.656	1719
38.664	1748
38.672	1785.00000000004
38.68	1829
38.688	1880
38.696	1934
38.704	1987
38.712	2040
38.72	2091
38.728	2138
38.736	2178.00000000003
38.744	2210
38.752	2233
38.76	2247
38.768	2252
38.776	2249
38.784	2243
38.792	2236
38.8	2224.99999999999
38.808	2208
38.816	2182
38.824	2150
38.832	2116
38.84	2080
38.848	2045
38.856	2014
38.864	1985.99999999998
38.872	1965
38.88	1948
38.888	1932
38.896	1919
38.904	1908
38.912	1900
38.92	1894
38.928	1886
38.936	1879
38.944	1876
38.952	1872
38.96	1866
38.968	1861
38.976	1856
38.984	1848
38.992	1840
39	1831
39.008	1822
39.016	1813
39.024	1804
39.032	1793.99999999999
39.04	1782
39.048	1769
39.056	1758
39.064	1749
39.072	1743
39.08	1736
39.088	1727
39.096	1717.99999999999
39.104	1709
39.112	1700
39.12	1690
39.128	1681
39.136	1675
39.144	1672
39.152	1670
39.16	1669
39.168	1669
39.176	1669
39.184	1666
39.192	1661
39.2	1659
39.208	1658
39.216	1657
39.224	1657
39.232	1660
39.24	1664
39.248	1666
39.256	1667
39.264	1668
39.272	1668
39.28	1668
39.288	1668
39.296	1668
39.304	1668
39.312	1668
39.32	1668
39.328	1668
39.336	1668
39.344	1668
39.352	1668
39.36	1668
39.368	1668
39.376	1668
39.384	1668
39.392	1668
39.4	1668
39.408	1668
39.416	1669
39.424	1671
39.432	1676
39.44	1692
39.448	1712
39.456	1744
39.464	1786
39.472	1837
39.48	1893.00000000005
39.488	1952
39.496	2012
39.504	2072
39.512	2130
39.52	2181
39.528	2226
39.536	2262
39.544	2290.00000000002
39.552	2309
39.56	2319
39.568	2322
39.576	2315
39.584	2301
39.592	2260
39.6	2235
39.608	2204.99999999997
39.616	2154
39.624	2118
39.632	2081
39.64	2046
39.648	2012
39.656	1981
39.664	1959
39.672	1940.99999999998
39.68	1924
39.688	1908
39.696	1893
39.704	1883
39.712	1876
39.72	1868
39.728	1859
39.736	1849.99999999999
39.744	1838
39.752	1825
39.76	1812
39.768	1798
39.776	1784
39.784	1770
39.792	1761
39.8	1753.99999999999
39.808	1745
39.816	1737
39.824	1728
39.832	1716
39.84	1703
39.848	1692
39.856	1682
39.864	1671.99999999999
39.872	1664
39.88	1660
39.888	1658
39.896	1657
39.904	1660
39.912	1664
39.92	1666
39.928	1667
39.936	1668
39.944	1668
39.952	1665
39.96	1659
39.968	1654
39.976	1649
39.984	1645
39.992	1643
40	1644
40.008	1648
40.016	1655
40.024	1662
40.032	1665
40.04	1667
40.048	1668
40.056	1668
40.064	1668
40.072	1668
40.08	1668
40.088	1668
40.096	1668
40.104	1670
40.112	1673
40.12	1675
40.128	1678
40.136	1681
40.144	1683
40.152	1684
40.16	1684
40.168	1682
40.176	1679
40.184	1678
40.192	1677
40.2	1679
40.208	1687
40.216	1701
40.224	1720.00000000002
40.232	1745
40.24	1779
40.248	1820
40.256	1868
40.264	1922
40.272	1980
40.28	2045
40.288	2116.00000000006
40.296	2188
40.304	2259
40.312	2328
40.32	2390
40.328	2443
40.336	2487
40.344	2518
40.352	2535.00000000001
40.36	2542
40.368	2543
40.376	2541
40.384	2535
40.392	2525
40.4	2508
40.408	2483
40.416	2438.99999999996
40.424	2385
40.432	2339
40.44	2297
40.448	2258
40.456	2222
40.464	2192
40.472	2168
40.48	2146.99999999998
40.488	2128
40.496	2111
40.504	2098
40.512	2087
40.52	2077
40.528	2069
40.536	2063
40.544	2055.99999999999
40.552	2047
40.56	2038
40.568	2026
40.576	2011
40.584	1995
40.592	1978
40.6	1962
40.608	1946.99999999999
40.616	1933
40.624	1923
40.632	1918
40.64	1913
40.648	1907
40.656	1902
40.664	1896
40.672	1890
40.68	1887
40.688	1884
40.696	1880
40.704	1878
40.712	1877
40.72	1875
40.728	1872
40.736	1866.99999999999
40.744	1860
40.752	1852
40.76	1846
40.768	1841
40.776	1834
40.784	1827
40.792	1822
40.8	1814.99999999999
40.808	1807
40.816	1800
40.824	1794
40.832	1789
40.84	1785
40.848	1778
40.856	1771
40.864	1765.99999999999
40.872	1759
40.88	1751
40.888	1742
40.896	1735
40.904	1730
40.912	1723
40.92	1718
40.928	1711.99999999999
40.936	1704
40.944	1696
40.952	1687
40.96	1678
40.968	1671
40.976	1668
40.984	1664
40.992	1660
41	1655
41.008	1650
41.016	1645
41.024	1641
41.032	1639
41.04	1638
41.048	1639
41.056	1649
41.064	1668
41.072	1693
41.08	1729
41.088	1775
41.096	1828.00000000005
41.104	1884
41.112	1938
41.12	1991
41.128	2043
41.136	2089
41.144	2131
41.152	2166
41.16	2187.00000000001
41.168	2198
41.176	2201
41.184	2199
41.192	2193
41.2	2183
41.208	2169
41.216	2148
41.224	2120.99999999997
41.232	2089
41.24	2052
41.248	2013
41.256	1973
41.264	1936
41.272	1903
41.28	1876
41.288	1850.99999999998
41.296	1830
41.304	1812
41.312	1793
41.32	1777
41.328	1765
41.336	1757
41.344	1750
41.352	1742.99999999999
41.36	1738
41.368	1733
41.376	1729
41.384	1723
41.392	1715
41.4	1706
41.408	1697
41.416	1685.99999999999
41.424	1673
41.432	1660
41.44	1646
41.448	1635
41.456	1625
41.464	1615
41.472	1606
41.48	1598.99999999999
41.488	1593
41.496	1585
41.504	1577
41.512	1569
41.52	1563
41.528	1557
41.536	1551
41.544	1546
41.552	1541
41.56	1537
41.568	1533
41.576	1528
41.584	1520
41.592	1512
41.6	1503
41.608	1493.99999999999
41.616	1487
41.624	1484
41.632	1482
41.64	1481
41.648	1481
41.656	1481
41.664	1479
41.672	1476
41.68	1474
41.688	1470
41.696	1465
41.704	1463
41.712	1462
41.72	1461
41.728	1461
41.736	1461
41.744	1461
41.752	1461
41.76	1459
41.768	1458
41.776	1459
41.784	1460
41.792	1460
41.8	1460
41.808	1463
41.816	1468
41.824	1470
41.832	1473
41.84	1479
41.848	1487
41.856	1496
41.864	1507.00000000001
41.872	1522
41.88	1540
41.888	1565
41.896	1594
41.904	1627
41.912	1667
41.92	1712
41.928	1762.00000000005
41.936	1815
41.944	1867
41.952	1914
41.96	1953
41.968	1986
41.976	2014
41.984	2035
41.992	2048
42	2054
42.008	2055
42.016	2052
42.024	2041
42.032	2023.99999999998
42.04	2003
42.048	1977
42.056	1948
42.064	1919
42.072	1893
42.08	1871
42.088	1851
42.096	1833.99999999999
42.104	1818
42.112	1803
42.12	1792
42.128	1781
42.136	1771
42.144	1764
42.152	1758
42.16	1749.99999999999
42.168	1741
42.176	1733
42.184	1727
42.192	1722
42.2	1714
42.208	1707
42.216	1702
42.224	1697
42.232	1695
42.24	1692
42.248	1685
42.256	1677
42.264	1669
42.272	1660
42.28	1650
42.288	1640.99999999999
42.296	1635
42.304	1632
42.312	1630
42.32	1629
42.328	1629
42.336	1629
42.344	1629
42.352	1627
42.36	1624
42.368	1622
42.376	1621
42.384	1621
42.392	1621
42.4	1621
42.408	1621
42.416	1621
42.424	1621
42.432	1621
42.44	1621
42.448	1618
42.456	1613
42.464	1648
42.472	1702
42.48	1729.00000000002
42.488	1743
42.496	1750
42.504	1753
42.512	1755
42.52	1756
42.528	1756
42.536	1756
42.544	1756
42.552	1756
42.56	1756
42.568	1756
42.576	1756
42.584	1759
42.592	1764
42.6	1766
42.608	1767
42.616	1768
42.624	1768
42.632	1770
42.64	1773
42.648	1775
42.656	1776
42.664	1776
42.672	1778
42.68	1783
42.688	1793
42.696	1810
42.704	1834
42.712	1867
42.72	1910
42.728	1958
42.736	2009.00000000005
42.744	2063
42.752	2118
42.76	2171
42.768	2219
42.776	2259
42.784	2293
42.792	2319
42.8	2336.00000000001
42.808	2346
42.816	2351
42.824	2352
42.832	2348
42.84	2339
42.848	2325
42.856	2306
42.864	2279.99999999997
42.872	2249
42.88	2216
42.888	2181
42.896	2148
42.904	2117
42.912	2092
42.92	2074
42.928	2060.99999999999
42.936	2050
42.944	2041
42.952	2035
42.96	2030
42.968	2025
42.976	2018
42.984	2011
42.992	2006
43	2001
43.008	1999
43.016	1996
43.024	1990
43.032	1985
43.04	1980
43.048	1972
43.056	1964
43.064	1955
43.072	1946
43.08	1937
43.088	1928
43.096	1917.99999999999
43.104	1909
43.112	1898
43.12	1885
43.128	1875
43.136	1865
43.144	1857
43.152	1851
43.16	1843.99999999999
43.168	1835
43.176	1826
43.184	1817
43.192	1806
43.2	1793
43.208	1785
43.216	1781
43.224	1779
43.232	1778
43.24	1777
43.248	1777
43.256	1777
43.264	1777
43.272	1777
43.28	1777
43.288	1777
43.296	1777
43.304	1777
43.312	1777
43.32	1775
43.328	1772
43.336	1770
43.344	1771
43.352	1774
43.36	1775
43.368	1776
43.376	1776
43.384	1776
43.392	1776
43.4	1776
43.408	1776
43.416	1776
43.424	1776
43.432	1776
43.44	1776
43.448	1776
43.456	1776
43.464	1776
43.472	1776
43.48	1776
43.488	1778
43.496	1786
43.504	1799
43.512	1817
43.52	1845
43.528	1882
43.536	1927
43.544	1980.00000000005
43.552	2037
43.56	2099
43.568	2160
43.576	2217
43.584	2269
43.592	2312
43.6	2344
43.608	2366.00000000002
43.616	2382
43.624	2393
43.632	2399
43.64	2397
43.648	2387
43.656	2373
43.664	2356
43.672	2332.99999999998
43.68	2304
43.688	2271
43.696	2234
43.704	2196
43.712	2161
43.72	2130
43.728	2105
43.736	2085.99999999999
43.744	2073
43.752	2065
43.76	2057
43.768	2051
43.776	2045
43.784	2037
43.792	2029
43.8	2019.99999999999
43.808	2010
43.816	2001
43.824	1995
43.832	1990
43.84	1982
43.848	1975
43.856	1970
43.864	1962.99999999999
43.872	1955
43.88	1948
43.888	1942
43.896	1932
43.904	1920
43.912	1907
43.92	1892
43.928	1877.99999999999
43.936	1864
43.944	1847
43.952	1832
43.96	1820
43.968	1809
43.976	1797
43.984	1787
43.992	1782
44	1779
44.008	1776
44.016	1772
44.024	1767
44.032	1762
44.04	1757
44.048	1748
44.056	1736
44.064	1728
44.072	1722
44.08	1719
44.088	1720
44.096	1722
44.104	1725
44.112	1730
44.12	1735
44.128	1738
44.136	1736
44.144	1732
44.152	1730
44.16	1729
44.168	1729
44.176	1729
44.184	1732
44.192	1738
44.2	1745
44.208	1754
44.216	1763
44.224	1770
44.232	1773
44.24	1775
44.248	1776
44.256	1776
44.264	1776
44.272	1776
44.28	1776
44.288	1778
44.296	1783
44.304	1795
44.312	1815
44.32	1841
44.328	1875
44.336	1918
44.344	1969
44.352	2023.00000000005
44.36	2078
44.368	2137
44.376	2197
44.384	2257
44.392	2314
44.4	2367
44.408	2418
44.416	2462.00000000003
44.424	2497
44.432	2524
44.44	2544
44.448	2554
44.456	2555
44.464	2547
44.472	2529
44.48	2500.99999999997
44.488	2466
44.496	2428
44.504	2391
44.512	2337
44.52	2277
44.528	2235
44.536	2204
44.544	2180.99999999998
44.552	2160
44.56	2140
44.568	2121
44.576	2102
44.584	2082
44.592	2062
44.6	2045
44.608	2034.99999999999
44.616	2027
44.624	2020
44.632	2014
44.64	2009
44.648	2005
44.656	2001
44.664	1994
44.672	1981.99999999999
44.68	1971
44.688	1962
44.696	1952
44.704	1942
44.712	1932
44.72	1922
44.728	1915
44.736	1912
44.744	1910
44.752	1909
44.76	1909
44.768	1907
44.776	1904
44.784	1899
44.792	1894
44.8	1888.99999999999
44.808	1882
44.816	1873
44.824	1867
44.832	1862
44.84	1857
44.848	1852
44.856	1846
44.864	1843
44.872	1840
44.88	1836
44.888	1831
44.896	1826
44.904	1821
44.912	1817
44.92	1815
44.928	1814
44.936	1815
44.944	1818
44.952	1822
44.96	1827
44.968	1830
44.976	1831
44.984	1829
44.992	1825
45	1823
45.008	1822
45.016	1824
45.024	1828
45.032	1830
45.04	1831
45.048	1832
45.056	1832
45.064	1829
45.072	1825
45.08	1823
45.088	1822
45.096	1821
45.104	1824
45.112	1833
45.12	1847
45.128	1868
45.136	1900
45.144	1940
45.152	1984
45.16	2035.00000000005
45.168	2095
45.176	2159
45.184	2225
45.192	2289
45.2	2349
45.208	2405
45.216	2458
45.224	2504.00000000004
45.232	2539
45.24	2564
45.248	2578
45.256	2580
45.264	2574
45.272	2564
45.28	2547
45.288	2521.99999999997
45.296	2489
45.304	2451
45.312	2408
45.32	2362
45.328	2318
45.336	2277
45.344	2237
45.352	2197.99999999997
45.36	2159
45.368	2123
45.376	2091
45.384	2060
45.392	2029
45.4	2002
45.408	1981
45.416	1963.99999999999
45.424	1948
45.432	1933
45.44	1919
45.448	1905
45.456	1890
45.464	1875
45.472	1859
45.48	1842.99999999999
45.488	1830
45.496	1816
45.504	1802
45.512	1788
45.52	1773
45.528	1759
45.536	1743
45.544	1724.99999999998
45.552	1706
45.56	1689
45.568	1677
45.576	1666
45.584	1655
45.592	1648
45.6	1641
45.608	1632.99999999999
45.616	1627
45.624	1622
45.632	1614
45.64	1607
45.648	1602
45.656	1597
45.664	1595
45.672	1594
45.68	1590
45.688	1585
45.696	1581
45.704	1577
45.712	1573
45.72	1566
45.728	1559
45.736	1554
45.744	1549
45.752	1544
45.76	1536
45.768	1530
45.776	1524
45.784	1518
45.792	1515
45.8	1512
45.808	1508
45.816	1506
45.824	1505
45.832	1503
45.84	1500
45.848	1495
45.856	1488
45.864	1482
45.872	1479
45.88	1478
45.888	1477
45.896	1477
45.904	1479
45.912	1485
45.92	1491
45.928	1496
45.936	1502
45.944	1512
45.952	1527
45.96	1550
45.968	1580
45.976	1616
45.984	1658
45.992	1706.00000000004
46	1759
46.008	1817
46.016	1877
46.024	1931
46.032	1980.00000000004
46.04	2023
46.048	2060
46.056	2090.00000000002
46.064	2114
46.072	2131
46.08	2140
46.088	2142
46.096	2135.99999999999
46.104	2123
46.112	2105
46.12	2079
46.128	2047
46.136	2014
46.144	1982
46.152	1954
46.16	1927.99999999998
46.168	1903
46.176	1882
46.184	1862
46.192	1844
46.2	1830
46.208	1816
46.216	1802
46.224	1792.99999999999
46.232	1786
46.24	1777
46.248	1768
46.256	1758
46.264	1749
46.272	1740
46.28	1730
46.288	1722.99999999999
46.296	1717
46.304	1709
46.312	1701
46.32	1692
46.328	1682
46.336	1675
46.344	1672
46.352	1668
46.36	1664
46.368	1659
46.376	1654
46.384	1651
46.392	1650
46.4	1649
46.408	1649
46.416	1649
46.424	1649
46.432	1649
46.44	1647
46.448	1644
46.456	1642
46.464	1641
46.472	1641
46.48	1641
46.488	1641
46.496	1638
46.504	1633
46.512	1631
46.52	1628
46.528	1624
46.536	1622
46.544	1621
46.552	1621
46.56	1645
46.568	1681
46.576	1699
46.584	1708
46.592	1712
46.6	1714
46.608	1715
46.616	1716
46.624	1716
46.632	1716
46.64	1718
46.648	1721
46.656	1723
46.664	1724
46.672	1726
46.68	1729
46.688	1731
46.696	1732
46.704	1732
46.712	1734
46.72	1739
46.728	1746
46.736	1751
46.744	1755
46.752	1760
46.76	1766
46.768	1775
46.776	1790
46.784	1809
46.792	1834
46.8	1867.00000000003
46.808	1908
46.816	1951
46.824	1994
46.832	2036
46.84	2078
46.848	2117
46.856	2152
46.864	2184.00000000003
46.872	2210
46.88	2227
46.888	2238
46.896	2241
46.904	2239
46.912	2232
46.92	2220
46.928	2204.99999999998
46.936	2185
46.944	2159
46.952	2131
46.96	2104
46.968	2078
46.976	2053
46.984	2029
46.992	2008.99999999999
47	1995
47.008	1985
47.016	1977
47.024	1969
47.032	1960.99999999999
47.04	1955
47.048	1950
47.056	1945
47.064	1943
47.072	1942
47.08	1941
47.088	1941
47.096	1939
47.104	1934
47.112	1929
47.12	1925
47.128	1917
47.136	1907
47.144	1898
47.152	1889
47.16	1880.99999999999
47.168	1874
47.176	1865
47.184	1855
47.192	1846
47.2	1835
47.208	1824
47.216	1814
47.224	1804.99999999999
47.232	1795
47.24	1784
47.248	1774
47.256	1766
47.264	1761
47.272	1759
47.28	1758
47.288	1757
47.296	1755
47.304	1752
47.312	1748
47.32	1742
47.328	1737
47.336	1735
47.344	1734
47.352	1733
47.36	1735
47.368	1738
47.376	1739
47.384	1742
47.392	1745
47.4	1747
47.408	1748
47.416	1748
47.424	1750
47.432	1753
47.44	1755
47.448	1756
47.456	1756
47.464	1756
47.472	1756
47.48	1756
47.488	1756
47.496	1756
47.504	1756
47.512	1756
47.52	1756
47.528	1756
47.536	1756
47.544	1756
47.552	1756
47.56	1757
47.568	1761
47.576	1767
47.584	1778
47.592	1797
47.6	1823
47.608	1855.00000000003
47.616	1894
47.624	1936
47.632	1982
47.64	2032
47.648	2082
47.656	2130
47.664	2173
47.672	2209.00000000003
47.68	2237
47.688	2257
47.696	2271
47.704	2278
47.712	2277
47.72	2271
47.728	2260
47.736	2245.99999999999
47.744	2231
47.752	2215
47.76	2194
47.768	2167
47.776	2140
47.784	2113
47.792	2087
47.8	2061.99999999998
47.808	2039
47.816	2020
47.824	2004
47.832	1992
47.84	1981
47.848	1973
47.856	1967
47.864	1959.99999999999
47.872	1954
47.88	1951
47.888	1948
47.896	1944
47.904	1942
47.912	1941
47.92	1939
47.928	1934
47.936	1929
47.944	1923
47.952	1914
47.96	1905
47.968	1897
47.976	1889
47.984	1881
47.992	1873.99999999999
48	1867
48.008	1862
48.016	1857
48.024	1851
48.032	1843.99999999999
48.04	1836
48.048	1828
48.056	1817.99999999999
48.064	1807
48.072	1798
48.08	1789
48.088	1781
48.096	1772.99999999999
48.104	1766
48.112	1759
48.12	1754
48.128	1751
48.136	1748
48.144	1744
48.152	1742
48.16	1741
48.168	1739
48.176	1736
48.184	1734
48.192	1731
48.2	1728
48.208	1726
48.216	1723
48.224	1720
48.232	1716
48.24	1712
48.248	1710
48.256	1709
48.264	1709
48.272	1709
48.28	1709
48.288	1709
48.296	1707
48.304	1704
48.312	1700
48.32	1696
48.328	1692
48.336	1688
48.344	1688
48.352	1690
48.36	1695
48.368	1704
48.376	1714
48.384	1729
48.392	1744
48.4	1758
48.408	1777
48.416	1803.00000000003
48.424	1837
48.432	1881
48.44	1932
48.448	1984
48.456	2037
48.464	2091
48.472	2143
48.48	2188.00000000004
48.488	2224
48.496	2252
48.504	2274
48.512	2289
48.52	2297
48.528	2299
48.536	2296
48.544	2285.99999999999
48.552	2271
48.56	2254
48.568	2235
48.576	2215
48.584	2192
48.592	2166
48.6	2137
48.608	2129
48.616	2128
48.624	2110
48.632	2087
48.64	2068
48.648	2055
48.656	2046
48.664	2041
48.672	2039
48.68	2035
48.688	2030
48.696	2027
48.704	2026
48.712	2022
48.72	2017
48.728	2013
48.736	2009
48.744	2007
48.752	2008
48.76	2010
48.768	2014
48.776	2019
48.784	2022
48.792	2020
48.8	2013.99999999999
48.808	2006
48.816	1996
48.824	1985
48.832	1974
48.84	1965
48.848	1961
48.856	1957
48.864	1953
48.872	1953
48.88	1955
48.888	1956
48.896	1956
48.904	1956
48.912	1956
48.92	1954
48.928	1951
48.936	1950
48.944	1949
48.952	1946
48.96	1941
48.968	1936
48.976	1930
48.984	1927
48.992	1923
49	1918
49.008	1915
49.016	1914
49.024	1913
49.032	1913
49.04	1913
49.048	1913
49.056	1910
49.064	1905
49.072	1901
49.08	1897
49.088	1895
49.096	1891
49.104	1886
49.112	1883
49.12	1882
49.128	1878
49.136	1873
49.144	1871
49.152	1870
49.16	1866
49.168	1864
49.176	1866
49.184	1873
49.192	1891
49.2	1916
49.208	1950
49.216	1993
49.224	2043.00000000005
49.232	2104
49.24	2174
49.248	2251
49.256	2332
49.264	2414
49.272	2497
49.28	2578
49.288	2648.00000000006
49.296	2706
49.304	2758
49.312	2800
49.32	2829
49.328	2847
49.336	2853
49.344	2848
49.352	2830.99999999998
49.36	2803
49.368	2770
49.376	2734
49.384	2691
49.392	2644
49.4	2594
49.408	2544
49.416	2496.99999999996
49.424	2455
49.432	2417
49.44	2381
49.448	2349
49.456	2322
49.464	2294
49.472	2266
49.48	2243.99999999998
49.488	2224
49.496	2205
49.504	2188
49.512	2171
49.52	2154
49.528	2137
49.536	2121
49.544	2100.99999999998
49.552	2080
49.56	2061
49.568	2046
49.576	2032
49.584	2020
49.592	2009
49.6	1995
49.608	1976.99999999998
49.616	1960
49.624	1942
49.632	1922
49.64	1901
49.648	1882
49.656	1864
49.664	1847
49.672	1829.99999999998
49.68	1812
49.688	1795
49.696	1776
49.704	1755
49.712	1734
49.72	1714
49.728	1697
49.736	1689.99999999999
49.744	1685
49.752	1679
49.76	1674
49.768	1668
49.776	1659
49.784	1649
49.792	1639
49.8	1628.99999999999
49.808	1618
49.816	1606
49.824	1594
49.832	1583
49.84	1576
49.848	1569
49.856	1563
49.864	1560
49.872	1558
49.88	1557
49.888	1557
49.896	1557
49.904	1557
49.912	1557
49.92	1554
49.928	1545.99999999999
49.936	1539
49.944	1536
49.952	1531
49.96	1526
49.968	1523
49.976	1523
49.984	1526
49.992	1530.00000000001
50	1542
50.008	1554
50.016	1574
50.024	1601
50.032	1637.00000000003
50.04	1680
50.048	1726
50.056	1777.00000000005
50.064	1834
50.072	1896
50.08	1958
50.088	2014
50.096	2081.00000000004
50.104	2119
50.112	2148
50.12	2180.00000000002
50.128	2192
50.136	2195
50.144	2189
50.152	2159
50.16	2129.99999999997
50.168	2094
50.176	2036
50.184	2000
50.192	1965
50.2	1934
50.208	1904
50.216	1875
50.224	1852.99999999998
50.232	1833
50.24	1814
50.248	1799
50.256	1787
50.264	1775
50.272	1760
50.28	1744
50.288	1733.99999999999
50.296	1726
50.304	1716
50.312	1708
50.32	1704
50.328	1702
50.336	1701
50.344	1701
50.352	1698
50.36	1693
50.368	1689
50.376	1685
50.384	1683
50.392	1682
50.4	1678
50.408	1673
50.416	1671
50.424	1667
50.432	1662
50.44	1656
50.448	1650
50.456	1644
50.464	1638
50.472	1633
50.48	1629
50.488	1627
50.496	1623
50.504	1618
50.512	1615
50.52	1611
50.528	1606
50.536	1603
50.544	1599
50.552	1594
50.56	1591
50.568	1587
50.576	1582
50.584	1577
50.592	1573
50.6	1573
50.608	1575
50.616	1576
50.624	1591
50.632	1614
50.64	1625
50.648	1631
50.656	1634
50.664	1634
50.672	1633
50.68	1633
50.688	1633
50.696	1633
50.704	1633
50.712	1633
50.72	1633
50.728	1633
50.736	1633
50.744	1634
50.752	1635
50.76	1638
50.768	1643
50.776	1650
50.784	1657
50.792	1665
50.8	1675.00000000001
50.808	1687
50.816	1700
50.824	1715
50.832	1734
50.84	1758
50.848	1789
50.856	1826
50.864	1868.00000000004
50.872	1911
50.88	1953
50.888	1993
50.896	2030
50.904	2063
50.912	2090
50.92	2108
50.928	2118.00000000001
50.936	2123
50.944	2125
50.952	2123
50.96	2116
50.968	2102
50.976	2084
50.984	2062
50.992	2035.99999999998
51	2008
51.008	1981
51.016	1957
51.024	1935
51.032	1916.99999999998
51.04	1901
51.048	1887
51.056	1875.99999999999
51.064	1866
51.072	1857
51.08	1850
51.088	1843
51.096	1835.99999999999
51.104	1828
51.112	1820
51.12	1811.99999999999
51.128	1804
51.136	1798
51.144	1794
51.152	1789
51.16	1783
51.168	1778
51.176	1773
51.184	1764.99999999999
51.192	1755
51.2	1746
51.208	1736
51.216	1728
51.224	1722
51.232	1717
51.24	1715
51.248	1714
51.256	1711
51.264	1708
51.272	1706
51.28	1705
51.288	1705
51.296	1703
51.304	1700
51.312	1698
51.32	1697
51.328	1697
51.336	1697
51.344	1696
51.352	1694
51.36	1693
51.368	1691
51.376	1688
51.384	1686
51.392	1685
51.4	1685
51.408	1685
51.416	1683
51.424	1680
51.432	1676
51.44	1672
51.448	1670
51.456	1669
51.464	1669
51.472	1669
51.48	1669
51.488	1669
51.496	1669
51.504	1669
51.512	1671
51.52	1674
51.528	1675
51.536	1676
51.544	1674
51.552	1671
51.56	1668
51.568	1666
51.576	1667
51.584	1670
51.592	1675
51.6	1683
51.608	1694.00000000001
51.616	1705
51.624	1716
51.632	1730
51.64	1751
51.648	1779
51.656	1813
51.664	1852
51.672	1893.00000000004
51.68	1937
51.688	1982
51.696	2024
51.704	2064
51.712	2101
51.72	2134
51.728	2161
51.736	2181.00000000001
51.744	2193
51.752	2199
51.76	2200
51.768	2194
51.776	2184
51.784	2170
51.792	2150
51.8	2124.99999999998
51.808	2096
51.816	2064
51.824	2033
51.832	2003
51.84	1975
51.848	1952
51.856	1932
51.864	1916.99999999999
51.872	1905
51.88	1893
51.888	1883
51.896	1874
51.904	1865
51.912	1857
51.92	1850
51.928	1842.99999999999
51.936	1836
51.944	1830
51.952	1825
51.96	1821
51.968	1817
51.976	1811
51.984	1804
51.992	1796.99999999999
52	1789
52.008	1777
52.016	1763
52.024	1750
52.032	1739.99999999999
52.04	1732
52.048	1726
52.056	1723
52.064	1722
52.072	1721
52.08	1719
52.088	1714
52.096	1709
52.104	1705
52.112	1701
52.12	1699
52.128	1698
52.136	1697
52.144	1697
52.152	1696
52.16	1694
52.168	1693
52.176	1691
52.184	1688
52.192	1686
52.2	1683
52.208	1680
52.216	1678
52.224	1677
52.232	1677
52.24	1677
52.248	1677
52.256	1677
52.264	1677
52.272	1677
52.28	1677
52.288	1677
52.296	1679
52.304	1682
52.312	1683
52.32	1684
52.328	1684
52.336	1684
52.344	1684
52.352	1682
52.36	1679
52.368	1678
52.376	1679
52.384	1682
52.392	1685
52.4	1690
52.408	1695
52.416	1702.00000000001
52.424	1709
52.432	1717
52.44	1726
52.448	1739
52.456	1759
52.464	1786
52.472	1822
52.48	1866.00000000004
52.488	1912
52.496	1959
52.504	2005
52.512	2049
52.52	2090
52.528	2125
52.536	2154
52.544	2175.00000000002
52.552	2192
52.56	2202
52.568	2205
52.576	2201
52.584	2192
52.592	2178
52.6	2159
52.608	2136.99999999998
52.616	2110
52.624	2079
52.632	2049
52.64	2021
52.648	1995
52.656	1973
52.664	1957
52.672	1975.00000000002
52.68	2009
52.688	2020
52.696	2019
52.704	2013
52.712	2004
52.72	1994
52.728	1984
52.736	1972.99999999999
52.744	1965
52.752	1961
52.76	1959
52.768	1955
52.776	1950
52.784	1947
52.792	1943
52.8	1931.99999999999
52.808	1917
52.816	1902
52.824	1883
52.832	1862
52.84	1842
52.848	1826
52.856	1810
52.864	1793.99999999999
52.872	1783
52.88	1775
52.888	1765
52.896	1754
52.904	1745
52.912	1741
52.92	1739
52.928	1736
52.936	1732
52.944	1727
52.952	1725
52.96	1727
52.968	1730
52.976	1733
52.984	1735
52.992	1736
53	1736
53.008	1736
53.016	1736
53.024	1736
53.032	1736
53.04	1736
53.048	1736
53.056	1736
53.064	1736
53.072	1736
53.08	1736
53.088	1736
53.096	1736
53.104	1736
53.112	1739
53.12	1744
53.128	1746
53.136	1747
53.144	1748
53.152	1748
53.16	1745
53.168	1741
53.176	1739
53.184	1738
53.192	1737
53.2	1737
53.208	1737
53.216	1740
53.224	1747.00000000001
53.232	1760
53.24	1780
53.248	1810.00000000003
53.256	1851
53.264	1903
53.272	1967
53.28	2040
53.288	2119.00000000007
53.296	2205
53.304	2294
53.312	2381
53.32	2462
53.328	2539
53.336	2612
53.344	2674
53.352	2728.00000000004
53.36	2772
53.368	2803
53.376	2822
53.384	2828
53.392	2822
53.4	2808
53.408	2784
53.416	2748.99999999997
53.424	2706
53.432	2655
53.44	2604
53.448	2552
53.456	2503
53.464	2465
53.472	2435
53.48	2407.99999999998
53.488	2382
53.496	2361
53.504	2343
53.512	2325
53.52	2310
53.528	2296
53.536	2283
53.544	2273.99999999999
53.552	2266
53.56	2257
53.568	2251
53.576	2245
53.584	2236
53.592	2225
53.6	2211
53.608	2194.99999999999
53.616	2179
53.624	2160
53.632	2138
53.64	2118
53.648	2102
53.656	2089
53.664	2078
53.672	2065.99999999999
53.68	2057
53.688	2050
53.696	2040
53.704	2029
53.712	2018
53.72	2006
53.728	1995
53.736	1984.99999999999
53.744	1971
53.752	1952
53.76	1933
53.768	1916
53.776	1899
53.784	1885
53.792	1872
53.8	1858.99999999999
53.808	1847
53.816	1835
53.824	1823
53.832	1809
53.84	1794
53.848	1777
53.856	1760
53.864	1747.99999999999
53.872	1740
53.88	1734
53.888	1731
53.896	1727
53.904	1722
53.912	1716
53.92	1710
53.928	1703.99999999999
53.936	1698
53.944	1692
53.952	1686
53.96	1680
53.968	1671
53.976	1664
53.984	1658
53.992	1653
54	1648
54.008	1642
54.016	1639
54.024	1638
54.032	1637
54.04	1640
54.048	1646
54.056	1654.00000000001
54.064	1667
54.072	1689
54.08	1717
54.088	1748
54.096	1786.00000000004
54.104	1833
54.112	1889
54.12	1955.00000000006
54.128	2022
54.136	2083
54.144	2143
54.152	2199
54.16	2250.00000000004
54.168	2292
54.176	2324
54.184	2349.00000000002
54.192	2365
54.2	2370
54.208	2366
54.216	2353
54.224	2329.99999999998
54.232	2298
54.24	2259
54.248	2213.99999999996
54.256	2165
54.264	2121
54.272	2082
54.28	2047
54.288	2015.99999999997
54.296	1986
54.304	1956
54.312	1929
54.32	1908
54.328	1886
54.336	1866
54.344	1850
54.352	1835.99999999999
54.36	1823
54.368	1812
54.376	1801
54.384	1790
54.392	1781
54.4	1774
54.408	1761
54.416	1748.99999999999
54.424	1743
54.432	1738
54.44	1733
54.448	1731
54.456	1730
54.464	1729
54.472	1726
54.48	1721
54.488	1719
54.496	1718
54.504	1717
54.512	1717
54.52	1717
54.528	1717
54.536	1714
54.544	1709
54.552	1707
54.56	1703
54.568	1698
54.576	1695
54.584	1691
54.592	1686
54.6	1686
54.608	1689
54.616	1688
54.624	1684
54.632	1682
54.64	1678
54.648	1673
54.656	1671
54.664	1667
54.672	1662
54.68	1659
54.688	1656
54.696	1652
54.704	1647
54.712	1642
54.72	1628
54.728	1610
54.736	1600.99999999999
54.744	1597
54.752	1597
54.76	1599
54.768	1600
54.776	1600
54.784	1598
54.792	1595
54.8	1592
54.808	1588
54.816	1584
54.824	1580
54.832	1580
54.84	1582
54.848	1585
54.856	1591
54.864	1600.00000000001
54.872	1613
54.88	1629
54.888	1647
54.896	1666
54.904	1688
54.912	1716
54.92	1749
54.928	1790.00000000004
54.936	1838
54.944	1887
54.952	1935
54.96	1983
54.968	2029
54.976	2069
54.984	2101
54.992	2128.00000000002
55	2148
55.008	2162
55.016	2169
55.024	2169
55.032	2161.99999999999
55.04	2149
55.048	2131
55.056	2106.99999999998
55.064	2080
55.072	2049
55.08	2019
55.088	1989
55.096	1960.99999999998
55.104	1939
55.112	1919
55.12	1901.99999999999
55.128	1889
55.136	1879
55.144	1870
55.152	1863
55.16	1858
55.168	1853
55.176	1849
55.184	1845
55.192	1840
55.2	1832
55.208	1826
55.216	1821
55.224	1817
55.232	1813
55.24	1807
55.248	1799.99999999999
55.256	1792
55.264	1783
55.272	1774
55.28	1765
55.288	1756.99999999999
55.296	1747
55.304	1736
55.312	1726
55.32	1714
55.328	1701
55.336	1691
55.344	1684
55.352	1680
55.36	1678
55.368	1677
55.376	1677
55.384	1677
55.392	1677
55.4	1677
55.408	1677
55.416	1677
55.424	1677
55.432	1677
55.44	1677
55.448	1677
55.456	1677
55.464	1677
55.472	1677
55.48	1677
55.488	1677
55.496	1677
55.504	1677
55.512	1677
55.52	1677
55.528	1677
55.536	1677
55.544	1677
55.552	1677
55.56	1677
55.568	1677
55.576	1675
55.584	1674
55.592	1675
55.6	1676
55.608	1676
55.616	1676
55.624	1676
55.632	1676
55.64	1676
55.648	1676
55.656	1676
55.664	1676
55.672	1676
55.68	1676
55.688	1678
55.696	1685
55.704	1698
55.712	1715
55.72	1739
55.728	1772
55.736	1813.00000000004
55.744	1862
55.752	1914
55.76	1966
55.768	2018
55.776	2069
55.784	2116
55.792	2154
55.8	2184.00000000002
55.808	2206
55.816	2221
55.824	2229
55.832	2229
55.84	2224
55.848	2214
55.856	2199
55.864	2178.99999999998
55.872	2156
55.88	2132
55.888	2105
55.896	2074
55.904	2043
55.912	2018
55.92	1994
55.928	1970.99999999998
55.936	1954
55.944	1941
55.952	1931
55.96	1922
55.968	1912
55.976	1902
55.984	1893
55.992	1887
56	1882
56.008	1877
56.016	1873
56.024	1869
56.032	1865
56.04	1861
56.048	1857
56.056	1850.99999999999
56.064	1843
56.072	1834
56.08	1825
56.088	1817
56.096	1808.99999999999
56.104	1801
56.112	1793
56.12	1783.99999999999
56.128	1774
56.136	1763
56.144	1752
56.152	1740
56.16	1727.99999999999
56.168	1715
56.176	1702
56.184	1690.99999999999
56.192	1684
56.2	1680
56.208	1678
56.216	1677
56.224	1677
56.232	1677
56.24	1677
56.248	1677
56.256	1675
56.264	1672
56.272	1672
56.28	1674
56.288	1675
56.296	1676
56.304	1676
56.312	1676
56.32	1676
56.328	1676
56.336	1674
56.344	1671
56.352	1670
56.36	1671
56.368	1674
56.376	1675
56.384	1676
56.392	1676
56.4	1676
56.408	1676
56.416	1676
56.424	1676
56.432	1676
56.44	1676
56.448	1676
56.456	1676
56.464	1676
56.472	1676
56.48	1676
56.488	1676
56.496	1678
56.504	1683
56.512	1693
56.52	1709
56.528	1731
56.536	1761
56.544	1802.00000000004
56.552	1852
56.56	1907
56.568	1965
56.576	2024
56.584	2083
56.592	2136
56.6	2179
56.608	2216.00000000003
56.616	2247
56.624	2272
56.632	2288
56.64	2298
56.648	2301
56.656	2296
56.664	2282
56.672	2260.99999999998
56.68	2236
56.688	2208
56.696	2175
56.704	2139
56.712	2104
56.72	2071
56.728	2040
56.736	2009.99999999997
56.744	1982
56.752	1959
56.76	1942
56.768	1952
56.776	1974
56.784	1977
56.792	1974
56.8	1966.99999999999
56.808	1959
56.816	1947
56.824	1933
56.832	1921
56.84	1910
56.848	1901
56.856	1894
56.864	1884.99999999999
56.872	1876
56.88	1866
56.888	1853
56.896	1836
56.904	1817
56.912	1798
56.92	1780
56.928	1764.99999999999
56.936	1753
56.944	1742
56.952	1733
56.96	1729
56.968	1725
56.976	1718
56.984	1711
56.992	1705.99999999999
57	1698
57.008	1691
57.016	1688
57.024	1686
57.032	1685
57.04	1685
57.048	1685
57.056	1685
57.064	1688
57.072	1692
57.08	1694
57.088	1695
57.096	1696
57.104	1693
57.112	1689
57.12	1684
57.128	1678
57.136	1675
57.144	1674
57.152	1676
57.16	1680
57.168	1685
57.176	1693
57.184	1699
57.192	1702
57.2	1703
57.208	1704
57.216	1704
57.224	1707
57.232	1712
57.24	1716
57.248	1720
57.256	1722
57.264	1723
57.272	1727
57.28	1732
57.288	1736
57.296	1743
57.304	1753
57.312	1766.00000000001
57.32	1785
57.328	1813
57.336	1853
57.344	1904
57.352	1963.00000000006
57.36	2032
57.368	2107
57.376	2187
57.384	2269
57.392	2349
57.4	2425
57.408	2497
57.416	2562.00000000005
57.424	2617
57.432	2661
57.44	2694
57.448	2715
57.456	2723
57.464	2722
57.472	2713
57.48	2697.99999999999
57.488	2680
57.496	2656
57.504	2623
57.512	2586
57.52	2544
57.528	2497
57.536	2448
57.544	2398.99999999996
57.552	2357
57.56	2323
57.568	2295
57.576	2271
57.584	2251
57.592	2236
57.6	2223
57.608	2210.99999999999
57.616	2200
57.624	2189
57.632	2179
57.64	2166
57.648	2148
57.656	2132
57.664	2116
57.672	2096.99999999998
57.68	2081
57.688	2068
57.696	2055
57.704	2046
57.712	2041
57.72	2037
57.728	2030
57.736	2017.99999999999
57.744	2004
57.752	1992
57.76	1981
57.768	1973
57.776	1969
57.784	1967
57.792	1966
57.8	1965
57.808	1965
57.816	1965
57.824	1963
57.832	1957
57.84	1951
57.848	1945
57.856	1937
57.864	1930.99999999999
57.872	1925
57.88	1919
57.888	1916
57.896	1914
57.904	1913
57.912	1911
57.92	1908
57.928	1902.99999999999
57.936	1895
57.944	1886
57.952	1876
57.96	1866
57.968	1856
57.976	1845
57.984	1837
57.992	1833
58	1829
58.008	1822
58.016	1815
58.024	1809
58.032	1800.99999999999
58.04	1792
58.048	1782
58.056	1771.99999999999
58.064	1761
58.072	1751
58.08	1741
58.088	1733
58.096	1729
58.104	1730
58.112	1733
58.12	1737.00000000001
58.128	1747
58.136	1763
58.144	1784
58.152	1810
58.16	1844.00000000003
58.168	1889
58.176	1945
58.184	2007.00000000006
58.192	2072
58.2	2140
58.208	2211
58.216	2279
58.224	2339.00000000005
58.232	2390
58.24	2430
58.248	2460.00000000002
58.256	2481
58.264	2492
58.272	2491
58.28	2483
58.288	2465.99999999998
58.296	2442
58.304	2412
58.312	2375.99999999997
58.32	2337
58.328	2294
58.336	2246
58.344	2196
58.352	2147.99999999996
58.36	2106
58.368	2069
58.376	2038
58.384	2009
58.392	1982
58.4	1958
58.408	1936
58.416	1916.99999999999
58.424	1902
58.432	1886
58.44	1871
58.448	1859
58.456	1847
58.464	1836
58.472	1822
58.48	1806.99999999999
58.488	1793
58.496	1775
58.504	1755
58.512	1740
58.52	1730
58.528	1720
58.536	1710
58.544	1699.99999999999
58.552	1689
58.56	1679
58.568	1669
58.576	1659
58.584	1652
58.592	1645
58.6	1636
58.608	1625.99999999999
58.616	1616
58.624	1606
58.632	1596
58.64	1585
58.648	1575
58.656	1568
58.664	1561
58.672	1549.99999999999
58.68	1536
58.688	1526
58.696	1519
58.704	1514
58.712	1508
58.72	1502
58.728	1499
58.736	1496
58.744	1492
58.752	1487
58.76	1479
58.768	1472
58.776	1466
58.784	1461
58.792	1459
58.8	1458
58.808	1457
58.816	1493
58.824	1547
58.832	1572
58.84	1582
58.848	1587
58.856	1590
58.864	1591
58.872	1592
58.88	1592
58.888	1592
58.896	1592
58.904	1592
58.912	1592
58.92	1594
58.928	1597
58.936	1601
58.944	1607
58.952	1614
58.96	1622
58.968	1633
58.976	1650
58.984	1674
58.992	1704.00000000003
59	1739
59.008	1779
59.016	1821
59.024	1866
59.032	1912.00000000004
59.04	1955
59.048	1993
59.056	2024.00000000002
59.064	2048
59.072	2066
59.08	2077
59.088	2083
59.096	2084
59.104	2078
59.112	2068
59.12	2055.99999999999
59.128	2041
59.136	2025
59.144	2008
59.152	1988
59.16	1966.99999999998
59.168	1946
59.176	1924
59.184	1903.99999999998
59.192	1888
59.2	1876
59.208	1867
59.216	1860
59.224	1851.99999999999
59.232	1844
59.24	1838
59.248	1833
59.256	1829
59.264	1826
59.272	1823
59.28	1820
59.288	1814
59.296	1809
59.304	1805
59.312	1799
59.32	1794
59.328	1791
59.336	1789
59.344	1787
59.352	1784
59.36	1778
59.368	1773
59.376	1769
59.384	1767
59.392	1768
59.4	1768
59.408	1766
59.416	1761
59.424	1756
59.432	1750
59.44	1743
59.448	1736
59.456	1730
59.464	1725
59.472	1721
59.48	1717
59.488	1713
59.496	1710
59.504	1705
59.512	1701
59.52	1697
59.528	1693
59.536	1691
59.544	1688
59.552	1684
59.56	1680
59.568	1675
59.576	1672
59.584	1668
59.592	1664
59.6	1664
59.608	1666
59.616	1667
59.624	1669
59.632	1671
59.64	1672
59.648	1672
59.656	1671
59.664	1670
59.672	1667
59.68	1664
59.688	1660
59.696	1656
59.704	1656
59.712	1658
59.72	1659
59.728	1662
59.736	1665
59.744	1668
59.752	1672
59.76	1678
59.768	1685
59.776	1696
59.784	1712
59.792	1733
59.8	1760.00000000003
59.808	1791
59.816	1827
59.824	1869
59.832	1915
59.84	1960
59.848	2001
59.856	2040
59.864	2075.00000000003
59.872	2105
59.88	2131
59.888	2154
59.896	2170
59.904	2181
59.912	2189
59.92	2191
59.928	2186.99999999999
59.936	2176
59.944	2159
59.952	2139
59.96	2114
59.968	2086
59.976	2058
59.984	2031
59.992	2008.99999999998
60	1991
60.008	1974
60.016	1959
60.024	1949
60.032	1940.99999999999
60.04	1933
60.048	1925
60.056	1916.99999999999
60.064	1910
60.072	1903
60.08	1898
60.088	1893
60.096	1882.99999999999
60.104	1876
60.112	1868
60.12	1858.99999999999
60.128	1852
60.136	1844
60.144	1836
60.152	1827
60.16	1817.99999999999
60.168	1807
60.176	1798
60.184	1792
60.192	1788
60.2	1786
60.208	1785
60.216	1786
60.224	1787
60.232	1788
60.24	1788
60.248	1788
60.256	1787
60.264	1786
60.272	1785
60.28	1785
60.288	1785
60.296	1785
60.304	1785
60.312	1783
60.32	1780
60.328	1776
60.336	1772
60.344	1766
60.352	1762
60.36	1758
60.368	1753
60.376	1749
60.384	1745
60.392	1741
60.4	1737
60.408	1735
60.416	1734
60.424	1733
60.432	1733
60.44	1733
60.448	1733
60.456	1733
60.464	1731
60.472	1728
60.48	1726
60.488	1725
60.496	1721
60.504	1718
60.512	1715
60.52	1715
60.528	1718
60.536	1723
60.544	1732.00000000001
60.552	1741
60.56	1751
60.568	1765
60.576	1781
60.584	1809
60.592	1835
60.6	1871
60.608	1939.00000000005
60.616	1990
60.624	2038
60.632	2084
60.64	2127
60.648	2168
60.656	2201
60.664	2225
60.672	2243.00000000001
60.68	2254
60.688	2259
60.696	2258
60.704	2251
60.712	2243
60.72	2230
60.728	2212
60.736	2189.99999999998
60.744	2164
60.752	2137
60.76	2108
60.768	2078
60.776	2052
60.784	2030
60.792	2013
60.8	2000.99999999999
60.808	1992
60.816	1984
60.824	1976
60.832	2000
60.84	2040
60.848	2056
60.856	2059
60.864	2056
60.872	2049
60.88	2041
60.888	2035
60.896	2029
60.904	2021
60.912	2013
60.92	2004
60.928	1993.99999999999
60.936	1984
60.944	1974
60.952	1962
60.96	1946
60.968	1928
60.976	1909
60.984	1891
60.992	1877.99999999999
61	1871
61.008	1868
61.016	1863
61.024	1858
61.032	1853
61.04	1849
61.048	1844
61.056	1835.99999999999
61.064	1830
61.072	1825
61.08	1818
61.088	1809
61.096	1799.99999999999
61.104	1792
61.112	1786
61.12	1781
61.128	1779
61.136	1775
61.144	1770
61.152	1765
61.16	1759
61.168	1754
61.176	1748
61.184	1742
61.192	1739
61.2	1738
61.208	1737
61.216	1737
61.224	1737
61.232	1737
61.24	1737
61.248	1737
61.256	1737
61.264	1737
61.272	1737
61.28	1735
61.288	1732
61.296	1730
61.304	1726
61.312	1721
61.32	1719
61.328	1718
61.336	1720
61.344	1729
61.352	1743.00000000001
61.36	1759
61.368	1780
61.376	1807.00000000003
61.384	1837
61.392	1869
61.4	1907
61.408	1955
61.416	2013.00000000005
61.424	2079
61.432	2149
61.44	2220
61.448	2289
61.456	2354
61.464	2410
61.472	2455
61.48	2490.00000000003
61.488	2514
61.496	2531
61.504	2540
61.512	2539
61.52	2532
61.528	2516
61.536	2495
61.544	2472.99999999998
61.552	2448
61.56	2421
61.568	2391
61.576	2358
61.584	2324
61.592	2290
61.6	2261
61.608	2237.99999999998
61.616	2216
61.624	2197
61.632	2183
61.64	2174
61.648	2167
61.656	2162
61.664	2156
61.672	2149.99999999999
61.68	2145
61.688	2141
61.696	2139
61.704	2138
61.712	2137
61.72	2137
61.728	2137
61.736	2134
61.744	2127
61.752	2119
61.76	2107
61.768	2094
61.776	2083
61.784	2076
61.792	2069
61.8	2063
61.808	2060
61.816	2058
61.824	2055
61.832	2052
61.84	2047
61.848	2040
61.856	2031
61.864	2021.99999999999
61.872	2013
61.88	2004
61.888	1994
61.896	1987
61.904	1984
61.912	1982
61.92	1981
61.928	1978
61.936	1973
61.944	1969
61.952	1962
61.96	1953
61.968	1945
61.976	1936
61.984	1928
61.992	1922
62	1917
62.008	1915
62.016	1916
62.024	1918
62.032	1919
62.04	1920
62.048	1920
62.056	1920
62.064	1923
62.072	1928
62.08	1930
62.088	1933
62.096	1937
62.104	1939
62.112	1940
62.12	1940
62.128	1940
62.136	1938
62.144	1935
62.152	1934
62.16	1935
62.168	1940
62.176	1949
62.184	1967.00000000002
62.192	1993
62.2	2027
62.208	2074
62.216	2129
62.224	2186.00000000005
62.232	2248
62.24	2315
62.248	2383.00000000006
62.256	2449
62.264	2509
62.272	2566
62.28	2618
62.288	2661.00000000003
62.296	2696
62.304	2720
62.312	2734.00000000001
62.32	2739
62.328	2735
62.336	2720
62.344	2695
62.352	2663.99999999997
62.36	2628
62.368	2588
62.376	2543.99999999996
62.384	2500
62.392	2458
62.4	2418
62.408	2381
62.416	2345.99999999997
62.424	2311
62.432	2279
62.44	2248.99999999997
62.448	2219
62.456	2192
62.464	2171
62.472	2156
62.48	2140.99999999999
62.488	2126
62.496	2113
62.504	2100
62.512	2086
62.52	2072
62.528	2057
62.536	2045
62.544	2031.99999999999
62.552	2018
62.56	2004
62.568	1989
62.576	1974
62.584	1957
62.592	1937
62.6	1914
62.608	1892.99999999998
62.616	1876
62.624	1862
62.632	1853
62.64	1846
62.648	1837
62.656	1826
62.664	1813
62.672	1804.99999999999
62.68	1798
62.688	1789
62.696	1780
62.704	1772
62.712	1766
62.72	1759
62.728	1751
62.736	1738.99999999999
62.744	1726
62.752	1714
62.76	1703
62.768	1696
62.776	1689
62.784	1681
62.792	1675
62.8	1669.99999999999
62.808	1662
62.816	1653
62.824	1647
62.832	1644
62.84	1642
62.848	1641
62.856	1641
62.864	1641
62.872	1638
62.88	1624
62.888	1608
62.896	1598
62.904	1589
62.912	1581
62.92	1575
62.928	1572
62.936	1568
62.944	1564
62.952	1562
62.96	1563
62.968	1566
62.976	1569
62.984	1575
62.992	1582.00000000001
63	1589
63.008	1599
63.016	1614
63.024	1635
63.032	1663.00000000003
63.04	1696
63.048	1733
63.056	1777.00000000004
63.064	1825
63.072	1874
63.08	1923
63.088	1968
63.096	2006.00000000003
63.104	2039
63.112	2065
63.12	2083.00000000001
63.128	2096
63.136	2102
63.144	2103
63.152	2100
63.16	2090.99999999999
63.168	2080
63.176	2062
63.184	2038.99999999998
63.192	2016
63.2	1990
63.208	1964
63.216	1940
63.224	1917.99999999998
63.232	1897
63.24	1879
63.248	1863.99999999999
63.256	1848
63.264	1834
63.272	1821
63.28	1809
63.288	1799.99999999999
63.296	1794
63.304	1791
63.312	1790
63.32	1789
63.328	1789
63.336	1789
63.344	1789
63.352	1789
63.36	1789
63.368	1789
63.376	1789
63.384	1789
63.392	1787
63.4	1784
63.408	1782
63.416	1781
63.424	1781
63.432	1781
63.44	1781
63.448	1781
63.456	1779
63.464	1774
63.472	1767
63.48	1762
63.488	1759
63.496	1758
63.504	1757
63.512	1757
63.52	1759
63.528	1762
63.536	1763
63.544	1764
63.552	1762
63.56	1759
63.568	1758
63.576	1755
63.584	1752
63.592	1750
63.6	1749
63.608	1749
63.616	1747
63.624	1744
63.632	1742
63.64	1741
63.648	1741
63.656	1741
63.664	1741
63.672	1741
63.68	1741
63.688	1741
63.696	1741
63.704	1741
63.712	1741
63.72	1741
63.728	1741
63.736	1741
63.744	1743
63.752	1746
63.76	1749
63.768	1753
63.776	1755
63.784	1758
63.792	1761
63.8	1765
63.808	1771
63.816	1778
63.824	1786
63.832	1799
63.84	1818
63.848	1843
63.856	1876
63.864	1915.00000000004
63.872	1960
63.88	2006
63.888	2052
63.896	2098
63.904	2143
63.912	2183
63.92	2218
63.928	2247.00000000002
63.936	2268
63.944	2280
63.952	2286
63.96	2285
63.968	2279
63.976	2270
63.984	2256
63.992	2237.99999999998
64	2215
64.008	2190
64.016	2163
64.024	2136
64.032	2111
64.04	2088
64.048	2066
64.056	2047
64.064	2031.99999999997
64.072	2018
64.08	2007
64.088	1999.99999999999
64.096	1992
64.104	1986
64.112	1981
64.12	1975
64.128	1970
64.136	1965
64.144	1959
64.152	1952
64.16	1945
64.168	1939
64.176	1932
64.184	1926
64.192	1920.99999999999
64.2	1915
64.208	1908
64.216	1899.99999999998
64.224	1890
64.232	1879
64.24	1870
64.248	1859
64.256	1848
64.264	1838
64.272	1831
64.28	1824
64.288	1814
64.296	1805
64.304	1798
64.312	1793
64.32	1788.99999999999
64.328	1785
64.336	1783
64.344	1782
64.352	1781
64.36	1781
64.368	1781
64.376	1779
64.384	1776
64.392	1774
64.4	1773
64.408	1773
64.416	1773
64.424	1773
64.432	1773
64.44	1775
64.448	1778
64.456	1779
64.464	1780
64.472	1780
64.48	1780
64.488	1782
64.496	1785
64.504	1787
64.512	1788
64.52	1788
64.528	1788
64.536	1788
64.544	1788
64.552	1788
64.56	1788
64.568	1788
64.576	1788
64.584	1788
64.592	1788
64.6	1788
64.608	1788
64.616	1789
64.624	1793
64.632	1799
64.64	1808
64.648	1822
64.656	1845
64.664	1877
64.672	1914
64.68	1957
64.688	2007
64.696	2057
64.704	2107.00000000009
64.712	2158
64.72	2204
64.728	2244
64.736	2276
64.744	2300
64.752	2320
64.76	2334
64.768	2341
64.776	2345
64.784	2343
64.792	2334
64.8	2317
64.808	2297
64.816	2275
64.824	2249
64.832	2222.99999999995
64.84	2196
64.848	2168
64.856	2140
64.864	2115
64.872	2096
64.88	2078
64.888	2061
64.896	2047
64.904	2038
64.912	2031
64.92	2026
64.928	2049
64.936	2087
64.944	2104
64.952	2110
64.96	2110
64.968	2107
64.976	2104
64.984	2098
64.992	2091
65	2086
65.008	2080
65.016	2072
65.024	2064
65.032	2056
65.04	2048
65.048	2037
65.056	2025
65.064	2014.99999999998
65.072	2006
65.08	1994
65.088	1980.99999999998
65.096	1968
65.104	1954
65.112	1943
65.12	1934
65.128	1925
65.136	1916
65.144	1906
65.152	1897
65.16	1889
65.168	1878
65.176	1867
65.184	1862
65.192	1859
65.2	1858
65.208	1857
65.216	1857
65.224	1857
65.232	1855
65.24	1852
65.248	1850
65.256	1849
65.264	1849
65.272	1847
65.28	1844
65.288	1842
65.296	1841
65.304	1841
65.312	1841
65.32	1841
65.328	1841
65.336	1843
65.344	1846
65.352	1847
65.36	1848
65.368	1848
65.376	1846
65.384	1843
65.392	1840
65.4	1836
65.408	1834
65.416	1835
65.424	1842
65.432	1851
65.44	1861
65.448	1873.00000000002
65.456	1888
65.464	1906
65.472	1930.00000000005
65.48	1962
65.488	2002
65.496	2049
65.504	2102
65.512	2159
65.52	2219
65.528	2278
65.536	2332
65.544	2381
65.552	2423
65.56	2457
65.568	2483
65.576	2501.00000000002
65.584	2510
65.592	2509
65.6	2503
65.608	2489
65.616	2468
65.624	2444
65.632	2419
65.64	2393
65.648	2367
65.656	2339
65.664	2309
65.672	2281
65.68	2256
65.688	2232
65.696	2209
65.704	2188.99999999997
65.712	2170
65.72	2153
65.728	2143
65.736	2136
65.744	2130
65.752	2127
65.76	2128
65.768	2130
65.776	2131
65.784	2132
65.792	2132
65.8	2132
65.808	2132
65.816	2130
65.824	2127
65.832	2123.99999999999
65.84	2120
65.848	2115
65.856	2108
65.864	2102
65.872	2099
65.88	2098
65.888	2099
65.896	2102
65.904	2106
65.912	2111
65.92	2111
65.928	2106
65.936	2101
65.944	2097
65.952	2093
65.96	2088.99999999999
65.968	2085
65.976	2083
65.984	2082
65.992	2078
66	2071
66.008	2066
66.016	2061
66.024	2057
66.032	2055
66.04	2054
66.048	2053
66.056	2051
66.064	2048
66.072	2046
66.08	2043
66.088	2039.99999999999
66.096	2035
66.104	2030
66.112	2027
66.12	2024
66.128	2022
66.136	2023
66.144	2024
66.152	2024
66.16	2024
66.168	2024
66.176	2022
66.184	2019
66.192	2018
66.2	2015
66.208	2012
66.216	2010
66.224	2009
66.232	2011
66.24	2016
66.248	2025
66.256	2041
66.264	2064
66.272	2093
66.28	2126
66.288	2164
66.296	2212
66.304	2270
66.312	2332
66.32	2398.00000000012
66.328	2469
66.336	2543
66.344	2615.00000000012
66.352	2677
66.36	2731
66.368	2776
66.376	2809
66.384	2833
66.392	2845
66.4	2846
66.408	2841
66.416	2833
66.424	2818
66.432	2796
66.44	2770
66.448	2737.99999999994
66.456	2699
66.464	2660
66.472	2622.99999999993
66.48	2585
66.488	2546
66.496	2510
66.504	2476
66.512	2446
66.52	2425
66.528	2408
66.536	2392
66.544	2377
66.552	2363
66.56	2352
66.568	2342
66.576	2332.99999999998
66.584	2322
66.592	2307
66.6	2293
66.608	2279
66.616	2264
66.624	2247
66.632	2230
66.64	2212
66.648	2194
66.656	2176
66.664	2158
66.672	2141
66.68	2126
66.688	2111
66.696	2098
66.704	2085.99999999998
66.712	2073
66.72	2061
66.728	2051
66.736	2041
66.744	2031
66.752	2022
66.76	2013
66.768	2005
66.776	1996
66.784	1986
66.792	1975
66.8	1963
66.808	1952
66.816	1940
66.824	1925
66.832	1908.99999999997
66.84	1895
66.848	1881
66.856	1867
66.864	1858
66.872	1851
66.88	1844
66.888	1838
66.896	1833
66.904	1826
66.912	1819
66.92	1814
66.928	1809
66.936	1805
66.944	1801
66.952	1799
66.96	1795.99999999999
66.968	1792
66.976	1743
66.984	1670
66.992	1631
67	1610
67.008	1597
67.016	1590
67.024	1585
67.032	1581
67.04	1577
67.048	1577
67.056	1579
67.064	1581
67.072	1585
67.08	1593
67.088	1605.00000000002
67.096	1620
67.104	1638
67.112	1660
67.12	1687
67.128	1721
67.136	1760
67.144	1803
67.152	1850
67.16	1894
67.168	1934
67.176	1970
67.184	2003
67.192	2032.00000000004
67.2	2053
67.208	2069
67.216	2079.00000000001
67.224	2082
67.232	2078
67.24	2069
67.248	2053
67.256	2032
67.264	2009
67.272	1983
67.28	1955
67.288	1928
67.296	1903
67.304	1882
67.312	1863
67.32	1845.99999999997
67.328	1832
67.336	1822
67.344	1812.99999999998
67.352	1805
67.36	1799
67.368	1794
67.376	1787
67.384	1782
67.392	1778
67.4	1775
67.408	1772
67.416	1768
67.424	1764
67.432	1760
67.44	1756
67.448	1749.99999999999
67.456	1743
67.464	1736
67.472	1728.99999999999
67.48	1721
67.488	1711
67.496	1702
67.504	1693
67.512	1684
67.52	1674
67.528	1667
67.536	1664
67.544	1662
67.552	1659
67.56	1654
67.568	1649
67.576	1644.99999999999
67.584	1641
67.592	1639
67.6	1638
67.608	1637
67.616	1637
67.624	1636
67.632	1634
67.64	1633
67.648	1633
67.656	1633
67.664	1633
67.672	1633
67.68	1633
67.688	1633
67.696	1633
67.704	1633
67.712	1633
67.72	1633
67.728	1633
67.736	1634
67.744	1635
67.752	1638
67.76	1641
67.768	1643
67.776	1646
67.784	1649
67.792	1653
67.8	1657
67.808	1659
67.816	1660
67.824	1660
67.832	1660
67.84	1660
67.848	1660
67.856	1660
67.864	1660
67.872	1660
67.88	1660
67.888	1660
67.896	1662
67.904	1666
67.912	1673
67.92	1687
67.928	1709
67.936	1738
67.944	1772
67.952	1813
67.96	1857.00000000008
67.968	1900
67.976	1943
67.984	1985
67.992	2024
68	2058
68.008	2085
68.016	2104
68.024	2114
68.032	2118
68.04	2119
68.048	2118
68.056	2111
68.064	2097.99999999997
68.072	2080
68.08	2058
68.088	2033.99999999996
68.096	2010
68.104	1985
68.112	1960
68.12	1934
68.128	1913
68.136	1897
68.144	1884
68.152	1874
68.16	1865
68.168	1859
68.176	1854
68.184	1849
68.192	1847
68.2	1846
68.208	1845
68.216	1842.99999999999
68.224	1838
68.232	1831
68.24	1825
68.248	1819
68.256	1812
68.264	1804
68.272	1798
68.28	1795
68.288	1792
68.296	1788
68.304	1783
68.312	1776
68.32	1767.99999999998
68.328	1758
68.336	1747
68.344	1736.99999999998
68.352	1727
68.36	1718
68.368	1709
68.376	1701
68.384	1693
68.392	1685
68.4	1679
68.408	1675
68.416	1670
68.424	1665
68.432	1663
68.44	1660
68.448	1656
68.456	1654
68.464	1655
68.472	1658
68.48	1659
68.488	1660
68.496	1660
68.504	1660
68.512	1660
68.52	1658
68.528	1655
68.536	1654
68.544	1653
68.552	1655
68.56	1658
68.568	1659
68.576	1660
68.584	1660
68.592	1660
68.6	1660
68.608	1660
68.616	1660
68.624	1660
68.632	1660
68.64	1660
68.648	1660
68.656	1660
68.664	1660
68.672	1660
68.68	1660
68.688	1660
68.696	1660
68.704	1662
68.712	1666
68.72	1673
68.728	1687
68.736	1707
68.744	1733
68.752	1768
68.76	1811
68.768	1859
68.776	1907
68.784	1955
68.792	2003
68.8	2050
68.808	2090
68.816	2121
68.824	2148
68.832	2168.00000000003
68.84	2182
68.848	2191
68.856	2194
68.864	2191
68.872	2183
68.88	2168
68.888	2149
68.896	2127
68.904	2101
68.912	2073
68.92	2044
68.928	2016
68.936	1991
68.944	1968
68.952	1945
68.96	1924.99999999997
68.968	1909
68.976	1895
68.984	1883
68.992	1876
69	1870
69.008	1865
69.016	1861
69.024	1894
69.032	1944
69.04	1966
69.048	1975
69.056	1975
69.064	1971.99999999999
69.072	1967
69.08	1960
69.088	1950.99999999998
69.096	1942
69.104	1929
69.112	1915
69.12	1903
69.128	1891
69.136	1880
69.144	1869
69.152	1858
69.16	1847
69.168	1837
69.176	1827
69.184	1817
69.192	1805.99999999998
69.2	1795
69.208	1785
69.216	1773.99999999998
69.224	1760
69.232	1746
69.24	1734
69.248	1725
69.256	1721
69.264	1722
69.272	1725
69.28	1727
69.288	1728
69.296	1728
69.304	1728
69.312	1725
69.32	1721
69.328	1719
69.336	1718
69.344	1717
69.352	1717
69.36	1720
69.368	1724
69.376	1726
69.384	1727
69.392	1728
69.4	1728
69.408	1728
69.416	1728
69.424	1728
69.432	1728
69.44	1728
69.448	1728
69.456	1728
69.464	1725
69.472	1721
69.48	1722
69.488	1725
69.496	1727
69.504	1728
69.512	1730
69.52	1736
69.528	1747
69.536	1763
69.544	1784
69.552	1815
69.56	1858
69.568	1911
69.576	1974.00000000012
69.584	2042
69.592	2111
69.6	2180.00000000012
69.608	2248
69.616	2311
69.624	2367
69.632	2414
69.64	2450
69.648	2478
69.656	2500
69.664	2514
69.672	2518
69.68	2515
69.688	2504
69.696	2479
69.704	2442.99999999993
69.712	2399
69.72	2351
69.728	2303
69.736	2255
69.744	2207
69.752	2164
69.76	2124
69.768	2089
69.776	2061
69.784	2039
69.792	2023
69.8	2007
69.808	1991
69.816	1977
69.824	1965
69.832	1953.99999999998
69.84	1943
69.848	1933
69.856	1922
69.864	1913
69.872	1907
69.88	1902
69.888	1896
69.896	1887
69.904	1878
69.912	1865
69.92	1851
69.928	1839
69.936	1828
69.944	1817
69.952	1806
69.96	1794.99999999998
69.968	1785
69.976	1774
69.984	1763
69.992	1753
70	1743
70.008	1736
70.016	1732
70.024	1730
70.032	1729
70.04	1729
70.048	1729
70.056	1729
70.064	1729
70.072	1729
70.08	1729
70.088	1729
70.096	1729
70.104	1729
70.112	1729
70.12	1729
70.128	1729
70.136	1729
70.144	1729
70.152	1729
70.16	1729
70.168	1729
70.176	1729
70.184	1729
70.192	1729
70.2	1731
70.208	1734
70.216	1735
70.224	1736
70.232	1736
70.24	1736
70.248	1736
70.256	1736
70.264	1736
70.272	1739
70.28	1744
70.288	1746
70.296	1747
70.304	1748
70.312	1748
70.32	1750.00000000001
70.328	1756
70.336	1767
70.344	1786.00000000004
70.352	1814
70.36	1855
70.368	1910
70.376	1973
70.384	2047
70.392	2132
70.4	2222
70.408	2312
70.416	2399
70.424	2480
70.432	2551
70.44	2613
70.448	2663.00000000008
70.456	2701
70.464	2741
70.472	2759.00000000002
70.48	2768
70.488	2761
70.496	2742
70.504	2714
70.512	2678
70.52	2639
70.528	2597
70.536	2552
70.544	2508
70.552	2465
70.56	2428
70.568	2399
70.576	2373.99999999996
70.584	2353
70.592	2335
70.6	2317.99999999997
70.608	2302
70.616	2286
70.624	2272
70.632	2262
70.64	2255
70.648	2250
70.656	2247
70.664	2243
70.672	2235
70.68	2226
70.688	2216
70.696	2203
70.704	2188.99999999998
70.712	2177
70.72	2163
70.728	2148
70.736	2132
70.744	2113
70.752	2091
70.76	2070
70.768	2051
70.776	2034
70.784	2017
70.792	2001
70.8	1985
70.808	1969
70.816	1956
70.824	1944
70.832	1932.99999999998
70.84	1916
70.848	1906
70.856	1894
70.864	1873
70.872	1860
70.88	1845
70.888	1831
70.896	1819
70.904	1805
70.912	1790
70.92	1776
70.928	1764
70.936	1753
70.944	1743
70.952	1736
70.96	1730.99999999999
70.968	1729
70.976	1729
70.984	1729
70.992	1729
71	1729
71.008	1726
71.016	1721
71.024	1722
71.032	1722
71.04	1690
71.048	1645
71.056	1621
71.064	1604.99999999997
71.072	1592
71.08	1580
71.088	1571.99999999999
71.096	1568
71.104	1566
71.112	1567
71.12	1575
71.128	1588
71.136	1600
71.144	1615
71.152	1637
71.16	1666
71.168	1702
71.176	1742
71.184	1788
71.192	1837.00000000009
71.2	1887
71.208	1937
71.216	1984.00000000008
71.224	2027
71.232	2064
71.24	2095
71.248	2120
71.256	2137
71.264	2149
71.272	2152
71.28	2144
71.288	2129
71.296	2108
71.304	2079
71.312	2048
71.32	2014.99999999994
71.328	1981
71.336	1946
71.344	1911.99999999995
71.352	1884
71.36	1859
71.368	1834
71.376	1810
71.384	1789
71.392	1772
71.4	1756
71.408	1742
71.416	1731
71.424	1724
71.432	1717
71.44	1709
71.448	1698.99999999998
71.456	1688
71.464	1677
71.472	1664.99999999998
71.48	1653
71.488	1642
71.496	1631
71.504	1622
71.512	1615
71.52	1612
71.528	1610
71.536	1607
71.544	1604
71.552	1602
71.56	1599
71.568	1594
71.576	1588.99999999999
71.584	1584
71.592	1578
71.6	1572.99999999999
71.608	1569
71.616	1567
71.624	1566
71.632	1565
71.64	1563
71.648	1560
71.656	1556
71.664	1550
71.672	1542
71.68	1535
71.688	1532
71.696	1530
71.704	1529
71.712	1529
71.72	1529
71.728	1527
71.736	1524
71.744	1520
71.752	1514
71.76	1509
71.768	1504
71.776	1498
71.784	1495
71.792	1494
71.8	1493
71.808	1491
71.816	1488
71.824	1486
71.832	1485
71.84	1485
71.848	1485
71.856	1485
71.864	1485
71.872	1485
71.88	1485
71.888	1483
71.896	1480
71.904	1478
71.912	1477
71.92	1479
71.928	1484
71.936	1491
71.944	1502
71.952	1516
71.96	1534.00000000004
71.968	1556
71.976	1580
71.984	1609
71.992	1646
72	1691
72.008	1743
72.016	1798
