Time	PPG1
0	2011
0.008	2002
0.016	1990
0.024	1977
0.032	1967
0.04	1957
0.048	1947
0.056	1938
0.064	1928
0.072	1918
0.08	1906
0.088	1893
0.096	1883
0.104	1871
0.112	1860
0.12	1854
0.128	1849
0.136	1845
0.144	1843
0.152	1842
0.16	1839
0.168	1836
0.176	1834
0.184	1833
0.192	1833
0.2	1833
0.208	1831
0.216	1828
0.224	1826
0.232	1825
0.24	1825
0.248	1822
0.256	1817
0.264	1815
0.272	1812
0.28	1808
0.288	1806
0.296	1805
0.304	1805
0.312	1805
0.32	1805
0.328	1807
0.336	1810
0.344	1811
0.352	1815
0.36	1820
0.368	1822
0.376	1823
0.384	1824
0.392	1824
0.4	1826
0.408	1829
0.416	1833
0.424	1839
0.432	1847
0.44	1858
0.448	1872
0.456	1891
0.464	1919
0.472	1956
0.48	2000
0.488	2052
0.496	2110
0.504	2171
0.512	2234
0.52	2295
0.528	2352
0.536	2401
0.544	2440
0.552	2468
0.56	2489
0.568	2503
0.576	2507
0.584	2504
0.592	2493
0.6	2474
0.608	2450
0.616	2422
0.624	2390
0.632	2355
0.64	2319
0.648	2283
0.656	2249
0.664	2216
0.672	2183
0.68	2155
0.688	2134
0.696	2119
0.704	2107
0.712	2096
0.72	2086
0.728	2076
0.736	2066
0.744	2059
0.752	2054
0.76	2046
0.768	2037
0.776	2031
0.784	2026
0.792	2021
0.8	2019
0.808	2016
0.816	2012
0.824	2007
0.832	2000
0.84	1992
0.848	1981
0.856	1969
0.864	1958
0.872	1947
0.88	1940
0.888	1934
0.896	1929
0.904	1927
0.912	1923
0.92	1918
0.928	1915
0.936	1912
0.944	1908
0.952	1904
0.96	1900
0.968	1895
0.976	1890
0.984	1885
0.992	1879
1	1874
1.008	1871
1.016	1870
1.024	1869
1.032	1869
1.04	1869
1.048	1869
1.056	1867
1.064	1864
1.072	1859
1.08	1854
1.088	1851
1.096	1850
1.104	1849
1.112	1849
1.12	1849
1.128	1849
1.136	1852
1.144	1858
1.152	1863
1.16	1866
1.168	1869
1.176	1871
1.184	1870
1.192	1867
1.2	1861
1.208	1855
1.216	1852
1.224	1853
1.232	1859
1.24	1866
1.248	1878
1.256	1900
1.264	1932
1.272	1974
1.28	2025
1.288	2083
1.296	2147
1.304	2216
1.312	2289
1.32	2368
1.328	2444
1.336	2514
1.344	2581
1.352	2638
1.36	2680
1.368	2713
1.376	2737
1.384	2753
1.392	2761
1.4	2761
1.408	2756
1.416	2743
1.424	2726
1.432	2706
1.44	2680
1.448	2646
1.456	2605
1.464	2562
1.472	2517
1.48	2476
1.488	2441
1.496	2411
1.504	2387
1.512	2368
1.52	2351
1.528	2338
1.536	2324
1.544	2310
1.552	2296
1.56	2280
1.568	2263
1.576	2246
1.584	2228
1.592	2209
1.6	2191
1.608	2173
1.616	2155
1.624	2139
1.632	2126
1.64	2112
1.648	2098
1.656	2087
1.664	2075
1.672	2059
1.68	2044
1.688	2030
1.696	2016
1.704	2002
1.712	1986
1.72	1971
1.728	1959
1.736	1946
1.744	1932
1.752	1920
1.76	1910
1.768	1900
1.776	1890
1.784	1881
1.792	1870
1.8	1857
1.808	1849
1.816	1843
1.824	1838
1.832	1835
1.84	1832
1.848	1828
1.856	1823
1.864	1816
1.872	1808
1.88	1799
1.888	1790
1.896	1781
1.904	1772
1.912	1762
1.92	1718
1.928	1657
1.936	1623
1.944	1604
1.952	1592
1.96	1584
1.968	1580
1.976	1576
1.984	1572
1.992	1568
2	1562
2.008	1555
2.016	1548
2.024	1540
2.032	1532
2.04	1526
2.048	1523
2.056	1524
2.064	1528
2.072	1534
2.08	1543
2.088	1558
2.096	1579
2.104	1606
2.112	1637
2.12	1673
2.128	1715
2.136	1762
2.144	1809
2.152	1860
2.16	1910
2.168	1953
2.176	1991
2.184	2024
2.192	2050
2.2	2069
2.208	2081
2.216	2085
2.224	2081
2.232	2069
2.24	2051
2.248	2026
2.256	1995
2.264	1964
2.272	1933
2.28	1905
2.288	1879
2.296	1854
2.304	1831
2.312	1812
2.32	1794
2.328	1777
2.336	1761
2.344	1747
2.352	1736
2.36	1726
2.368	1717
2.376	1709
2.384	1701
2.392	1695
2.4	1692
2.408	1690
2.416	1689
2.424	1687
2.432	1684
2.44	1680
2.448	1674
2.456	1669
2.464	1665
2.472	1661
2.48	1657
2.488	1653
2.496	1651
2.504	1648
2.512	1642
2.52	1637
2.528	1633
2.536	1627
2.544	1620
2.552	1614
2.56	1609
2.568	1605
2.576	1601
2.584	1597
2.592	1593
2.6	1589
2.608	1585
2.616	1579
2.624	1572
2.632	1566
2.64	1561
2.648	1557
2.656	1553
2.664	1549
2.672	1545
2.68	1541
2.688	1537
2.696	1531
2.704	1524
2.712	1518
2.72	1513
2.728	1509
2.736	1507
2.744	1508
2.752	1510
2.76	1513
2.768	1517
2.776	1519
2.784	1518
2.792	1515
2.8	1514
2.808	1513
2.816	1513
2.824	1513
2.832	1513
2.84	1515
2.848	1518
2.856	1519
2.864	1522
2.872	1527
2.88	1534
2.888	1541
2.896	1551
2.904	1566
2.912	1585
2.92	1609
2.928	1639
2.936	1674
2.944	1713
2.952	1757
2.96	1805
2.968	1856
2.976	1902
2.984	1941
2.992	1977
3	2009
3.008	2035
3.016	2054
3.024	2067
3.032	2076
3.04	2078
3.048	2075
3.056	2066
3.064	2049
3.072	2027
3.08	2000
3.088	1972
3.096	1945
3.104	1919
3.112	1896
3.12	1874
3.128	1853
3.136	1837
3.144	1823
3.152	1810
3.16	1799
3.168	1790
3.176	1783
3.184	1778
3.192	1771
3.2	1766
3.208	1761
3.216	1757
3.224	1755
3.232	1752
3.24	1748
3.248	1746
3.256	1743
3.264	1738
3.272	1731
3.28	1722
3.288	1709
3.296	1699
3.304	1694
3.312	1689
3.32	1685
3.328	1685
3.336	1687
3.344	1686
3.352	1683
3.36	1682
3.368	1679
3.376	1674
3.384	1669
3.392	1667
3.4	1664
3.408	1660
3.416	1658
3.424	1655
3.432	1652
3.44	1650
3.448	1647
3.456	1644
3.464	1642
3.472	1639
3.48	1636
3.488	1634
3.496	1633
3.504	1631
3.512	1628
3.52	1626
3.528	1623
3.536	1620
3.544	1618
3.552	1617
3.56	1617
3.568	1617
3.576	1619
3.584	1622
3.592	1623
3.6	1622
3.608	1619
3.616	1618
3.624	1617
3.632	1617
3.64	1615
3.648	1612
3.656	1610
3.664	1611
3.672	1614
3.68	1617
3.688	1623
3.696	1630
3.704	1639
3.712	1652
3.72	1666
3.728	1681
3.736	1701
3.744	1727
3.752	1760
3.76	1802
3.768	1852
3.776	1906
3.784	1959
3.792	2010
3.8	2057
3.808	2101
3.816	2139
3.824	2168
3.832	2188
3.84	2202
3.848	2209
3.856	2209
3.864	2203
3.872	2190
3.88	2173
3.888	2153
3.896	2129
3.904	2103
3.912	2074
3.92	2043
3.928	2014
3.936	1985
3.944	1959
3.952	1940
3.96	1923
3.968	1958
3.976	2023
3.984	2053
3.992	2062
4	2060
4.008	2053
4.016	2045
4.024	2036
4.032	2025
4.04	2017
4.048	2010
4.056	2003
4.064	1997
4.072	1988
4.08	1977
4.088	1966
4.096	1952
4.104	1937
4.112	1921
4.12	1904
4.128	1889
4.136	1874
4.144	1858
4.152	1844
4.16	1831
4.168	1819
4.176	1810
4.184	1805
4.192	1803
4.2	1802
4.208	1801
4.216	1801
4.224	1798
4.232	1793
4.24	1791
4.248	1790
4.256	1789
4.264	1789
4.272	1789
4.28	1789
4.288	1789
4.296	1789
4.304	1789
4.312	1786
4.32	1781
4.328	1779
4.336	1778
4.344	1777
4.352	1780
4.36	1784
4.368	1786
4.376	1787
4.384	1785
4.392	1781
4.4	1777
4.408	1773
4.416	1771
4.424	1770
4.432	1769
4.44	1769
4.448	1763
4.456	1760
4.464	1757
4.472	1750
4.48	1753
4.488	1760
4.496	1773
4.504	1784
4.512	1798
4.52	1814
4.528	1848
4.536	1883
4.544	1929.00000000001
4.552	2021.00000000001
4.56	2098.00000000001
4.568	2177.00000000001
4.576	2254.00000000001
4.584	2329.00000000001
4.592	2401.00000000001
4.6	2463.00000000001
4.608	2515.00000000001
4.616	2569
4.624	2593
4.632	2609
4.64	2616
4.648	2605
4.656	2583
4.664	2551
4.672	2518
4.68	2481
4.688	2440
4.696	2393
4.704	2344
4.712	2294
4.72	2243
4.728	2200
4.736	2167
4.744	2140
4.752	2117
4.76	2097
4.768	2078
4.776	2062
4.784	2049
4.792	2038
4.8	2026
4.808	2011
4.816	1995
4.824	1984
4.832	1975
4.84	1965
4.848	1955
4.856	1948
4.864	1941
4.872	1932
4.88	1918
4.888	1902
4.896	1885
4.904	1869
4.912	1856
4.92	1843
4.928	1831
4.936	1822
4.944	1814
4.952	1807
4.96	1804
4.968	1799
4.976	1794
4.984	1791
4.992	1787
5	1782
5.008	1777
5.016	1773
5.024	1771
5.032	1770
5.04	1771
5.048	1774
5.056	1775
5.064	1779
5.072	1784
5.08	1789
5.088	1795
5.096	1798
5.104	1799
5.112	1800
5.12	1800
5.128	1800
5.136	1800
5.144	1800
5.152	1800
5.16	1800
5.168	1800
5.176	1800
5.184	1800
5.192	1800
5.2	1800
5.208	1800
5.216	1800
5.224	1800
5.232	1800
5.24	1800
5.248	1800
5.256	1800
5.264	1800
5.272	1800
5.28	1800
5.288	1803
5.296	1814
5.304	1830
5.312	1852
5.32	1884
5.328	1923
5.336	1971
5.344	2035
5.352	2110
5.36	2190
5.368	2276
5.376	2368
5.384	2463
5.392	2557
5.4	2647
5.408	2727
5.416	2793
5.424	2843
5.432	2877
5.44	2897
5.448	2904
5.456	2901
5.464	2892
5.472	2876
5.48	2853
5.488	2822
5.496	2783
5.504	2740.99999999999
5.512	2693.99999999999
5.52	2640.99999999999
5.528	2588.99999999999
5.536	2543
5.544	2503
5.552	2468
5.56	2439
5.568	2417
5.576	2397
5.584	2378
5.592	2362
5.6	2345
5.608	2329
5.616	2316
5.624	2300
5.632	2283
5.64	2269
5.648	2256
5.656	2243
5.664	2232
5.672	2218
5.68	2202
5.688	2188
5.696	2175
5.704	2163
5.712	2154
5.72	2146
5.728	2139
5.736	2136
5.744	2132
5.752	2125
5.76	2119
5.768	2113
5.776	2104
5.784	2096
5.792	2089
5.8	2080
5.808	2069
5.816	2058
5.824	2047
5.832	2037
5.84	2026
5.848	2014
5.856	2002
5.864	1990
5.872	1975
5.88	1960
5.888	1947
5.896	1938
5.904	1930
5.912	1920
5.92	1909
5.928	1901
5.936	1891
5.944	1877
5.952	1865
5.96	1854
5.968	1842
5.976	1830
5.984	1765
5.992	1677
6	1633
6.008	1611
6.016	1600
6.024	1594
6.032	1591
6.04	1590
6.048	1589
6.056	1589
6.064	1589
6.072	1589
6.08	1589
6.088	1589
6.096	1589
6.104	1589
6.112	1589
6.12	1589
6.128	1591
6.136	1599
6.144	1613
6.152	1633
6.16	1661
6.168	1697
6.176	1742
6.184	1794
6.192	1848
6.2	1903
6.208	1961
6.216	2017
6.224	2070
6.232	2119
6.24	2159
6.248	2187
6.256	2204
6.264	2209
6.272	2204
6.28	2191
6.288	2173
6.296	2149
6.304	2119
6.312	2084
6.32	2043
6.328	2000
6.336	1958
6.344	1917
6.352	1877
6.36	1840
6.368	1809
6.376	1784
6.384	1761
6.392	1740
6.4	1721
6.408	1707
6.416	1693
6.424	1678
6.432	1665
6.44	1652
6.448	1637
6.456	1625
6.464	1614
6.472	1603
6.48	1596
6.488	1592
6.496	1590
6.504	1586
6.512	1579
6.52	1571
6.528	1562
6.536	1555
6.544	1549
6.552	1541
6.56	1535
6.568	1529
6.576	1523
6.584	1518
6.592	1510
6.6	1501
6.608	1495
6.616	1489
6.624	1481
6.632	1475
6.64	1472
6.648	1467
6.656	1462
6.664	1459
6.672	1458
6.68	1457
6.688	1457
6.696	1457
6.704	1457
6.712	1457
6.72	1455
6.728	1452
6.736	1447
6.744	1442
6.752	1437
6.76	1433
6.768	1431
6.776	1430
6.784	1429
6.792	1429
6.8	1431
6.808	1434
6.816	1433
6.824	1431
6.832	1430
6.84	1429
6.848	1429
6.856	1429
6.864	1429
6.872	1429
6.88	1426
6.888	1421
6.896	1419
6.904	1418
6.912	1417
6.92	1420
6.928	1426
6.936	1434
6.944	1443
6.952	1453
6.96	1466
6.968	1484
6.976	1508
6.984	1538
6.992	1575
7	1621
7.008	1677
7.016	1740
7.024	1803
7.032	1863
7.04	1918
7.048	1965
7.056	2004
7.064	2038
7.072	2068
7.08	2091
7.088	2106
7.096	2113
7.104	2114
7.112	2106
7.12	2092
7.128	2072
7.136	2044
7.144	2013
7.152	1981
7.16	1947
7.168	1915
7.176	1887
7.184	1863
7.192	1841
7.2	1822
7.208	1804
7.216	1788
7.224	1775
7.232	1764
7.24	1753
7.248	1743
7.256	1736
7.264	1729
7.272	1721
7.28	1712
7.288	1702
7.296	1692
7.304	1682
7.312	1672
7.32	1664
7.328	1658
7.336	1650
7.344	1641
7.352	1632
7.36	1622
7.368	1612
7.376	1602
7.384	1595
7.392	1592
7.4	1587
7.408	1582
7.416	1579
7.424	1576
7.432	1572
7.44	1570
7.448	1569
7.456	1569
7.464	1571
7.472	1574
7.48	1575
7.488	1576
7.496	1576
7.504	1576
7.512	1576
7.52	1576
7.528	1576
7.536	1576
7.544	1576
7.552	1576
7.56	1576
7.568	1576
7.576	1579
7.584	1584
7.592	1586
7.6	1587
7.608	1588
7.616	1588
7.624	1588
7.632	1588
7.64	1588
7.648	1588
7.656	1588
7.664	1588
7.672	1588
7.68	1588
7.688	1588
7.696	1585
7.704	1581
7.712	1579
7.72	1578
7.728	1580
7.736	1584
7.744	1588
7.752	1595
7.76	1604
7.768	1613
7.776	1623
7.784	1635
7.792	1656
7.8	1686
7.808	1724
7.816	1773
7.824	1830
7.832	1888
7.84	1950
7.848	2014
7.856	2076
7.864	2132
7.872	2178
7.88	2216
7.888	2245
7.896	2265
7.904	2277
7.912	2281
7.92	2276
7.928	2263
7.936	2244
7.944	2219
7.952	2192
7.96	2163
7.968	2131
7.976	2097
7.984	2063
7.992	2028
8	1997
8.008	1969.99999999999
8.016	1944
8.024	1923
8.032	1957
8.04	2018.00000000001
8.048	2043
8.056	2051
8.064	2052
8.072	2050
8.08	2047
8.088	2043
8.096	2038
8.104	2033
8.112	2029
8.12	2024
8.128	2015
8.136	2006
8.144	1996
8.152	1986
8.16	1976
8.168	1963
8.176	1949
8.184	1937
8.192	1926
8.2	1915
8.208	1905
8.216	1892
8.224	1877
8.232	1865
8.24	1854
8.248	1843
8.256	1830
8.264	1815
8.272	1803
8.28	1792
8.288	1784
8.296	1780
8.304	1778
8.312	1777
8.32	1777
8.328	1777
8.336	1774
8.344	1769
8.352	1767
8.36	1766
8.368	1763
8.376	1760
8.384	1758
8.392	1757
8.4	1757
8.408	1757
8.416	1757
8.424	1757
8.432	1759
8.44	1762
8.448	1763
8.456	1767
8.464	1772
8.472	1774
8.48	1775
8.488	1776
8.496	1776
8.504	1776
8.512	1776
8.52	1776
8.528	1776
8.536	1776
8.544	1776
8.552	1776
8.56	1776
8.568	1776
8.576	1778
8.584	1781
8.592	1788
8.6	1802
8.608	1825
8.616	1860
8.624	1908
8.632	1968
8.64	2034
8.648	2105
8.656	2179
8.664	2250
8.672	2316
8.68	2375
8.688	2426
8.696	2469
8.704	2501
8.712	2522
8.72	2537
8.728	2545
8.736	2542
8.744	2530
8.752	2511
8.76	2484
8.768	2452
8.776	2420
8.784	2386
8.792	2348
8.8	2308
8.808	2270
8.816	2233
8.824	2200
8.832	2173
8.84	2150
8.848	2128
8.856	2112
8.864	2101
8.872	2093
8.88	2086
8.888	2077
8.896	2068
8.904	2060
8.912	2054
8.92	2049
8.928	2044
8.936	2036
8.944	2027
8.952	2017
8.96	2007
8.968	1997
8.976	1987
8.984	1977
8.992	1964
9	1947
9.008	1929
9.016	1909
9.024	1888
9.032	1870
9.04	1854
9.048	1838
9.056	1824
9.064	1809
9.072	1795
9.08	1783
9.088	1772
9.096	1761
9.104	1753
9.112	1747
9.12	1739
9.128	1730
9.136	1723
9.144	1720
9.152	1718
9.16	1719
9.168	1722
9.176	1723
9.184	1724
9.192	1724
9.2	1722
9.208	1719
9.216	1715
9.224	1710
9.232	1707
9.24	1709
9.248	1713
9.256	1715
9.264	1718
9.272	1721
9.28	1726
9.288	1733
9.296	1739
9.304	1745
9.312	1751
9.32	1754
9.328	1755
9.336	1758
9.344	1761
9.352	1766
9.36	1771
9.368	1774
9.376	1777
9.384	1781
9.392	1786
9.4	1796
9.408	1814
9.416	1841
9.424	1881
9.432	1935
9.44	1998
9.448	2070
9.456	2152
9.464	2239
9.472	2329
9.48	2415
9.488	2494
9.496	2567
9.504	2633
9.512	2686
9.52	2722
9.528	2743
9.536	2754
9.544	2756
9.552	2749
9.56	2736
9.568	2719
9.576	2696
9.584	2666
9.592	2633
9.6	2596
9.608	2553
9.616	2509
9.624	2469
9.632	2434
9.64	2404
9.648	2378
9.656	2354
9.664	2332
9.672	2311
9.68	2293
9.688	2279
9.696	2267
9.704	2256
9.712	2245
9.72	2234
9.728	2223
9.736	2213
9.744	2200
9.752	2186
9.76	2174
9.768	2160
9.776	2145
9.784	2130
9.792	2115
9.8	2103
9.808	2091
9.816	2082
9.824	2075
9.832	2070
9.84	2064
9.848	2058
9.856	2053
9.864	2049
9.872	2047
9.88	2046
9.888	2045
9.896	2045
9.904	2045
9.912	2045
9.92	2042
9.928	2037
9.936	2033
9.944	2029
9.952	2024
9.96	2018
9.968	2015
9.976	2014
9.984	2013
9.992	2010
10	2005
10.008	2001
10.016	1994
10.024	1987
10.032	1982
10.04	1977
10.048	1975
10.056	1974
10.064	1973
10.072	1973
10.08	1934
10.088	1872.99999999999
10.096	1841
10.104	1823
10.112	1810
10.12	1798
10.128	1789
10.136	1783
10.144	1778
10.152	1773
10.16	1769
10.168	1765
10.176	1761
10.184	1759
10.192	1758
10.2	1757
10.208	1757
10.216	1759
10.224	1769
10.232	1787
10.24	1813
10.248	1852
10.256	1899
10.264	1954
10.272	2014
10.28	2078
10.288	2145
10.296	2210
10.304	2270
10.312	2326
10.32	2376
10.328	2416
10.336	2444
10.344	2460
10.352	2466
10.36	2465
10.368	2459
10.376	2445
10.384	2425
10.392	2400
10.4	2367
10.408	2329
10.416	2286
10.424	2240
10.432	2195
10.44	2152
10.448	2111
10.456	2073
10.464	2036
10.472	2002
10.48	1972
10.488	1948
10.496	1930
10.504	1915
10.512	1901
10.52	1887
10.528	1874
10.536	1861
10.544	1848
10.552	1834
10.56	1821
10.568	1809
10.576	1798
10.584	1785
10.592	1773
10.6	1761
10.608	1746
10.616	1729
10.624	1713
10.632	1696
10.64	1680
10.648	1668
10.656	1660
10.664	1654
10.672	1647
10.68	1640
10.688	1631
10.696	1624
10.704	1618
10.712	1611
10.72	1606
10.728	1601
10.736	1597
10.744	1593
10.752	1589
10.76	1587
10.768	1584
10.776	1580
10.784	1578
10.792	1574
10.8	1569
10.808	1565
10.816	1559
10.824	1554
10.832	1549
10.84	1545
10.848	1541
10.856	1537
10.864	1532
10.872	1524
10.88	1518
10.888	1513
10.896	1509
10.904	1507
10.912	1506
10.92	1505
10.928	1505
10.936	1505
10.944	1505
10.952	1505
10.96	1503
10.968	1500
10.976	1498
10.984	1497
10.992	1497
11	1497
11.008	1499
11.016	1502
11.024	1503
11.032	1506
11.04	1511
11.048	1519
11.056	1532
11.064	1553
11.072	1582.00000000001
11.08	1615
11.088	1655.00000000001
11.096	1699
11.104	1747.00000000001
11.112	1799
11.12	1851.00000000001
11.128	1901
11.136	1946.00000000001
11.144	1986
11.152	2019.00000000001
11.16	2044
11.168	2060
11.176	2068
11.184	2070
11.192	2065
11.2	2055
11.208	2039
11.216	2016.99999999999
11.224	1991
11.232	1962.99999999999
11.24	1936
11.248	1908.99999999999
11.256	1883
11.264	1859
11.272	1838
11.28	1819
11.288	1803
11.296	1788
11.304	1774
11.312	1763
11.32	1754
11.328	1744
11.336	1736
11.344	1732
11.352	1728
11.36	1724
11.368	1720
11.376	1716
11.384	1712
11.392	1706
11.4	1699
11.408	1691
11.416	1682
11.424	1673
11.432	1667
11.44	1664
11.448	1662
11.456	1659
11.464	1656
11.472	1654
11.48	1651
11.488	1648
11.496	1644
11.504	1640
11.512	1638
11.52	1637
11.528	1637
11.536	1637
11.544	1635
11.552	1632
11.56	1627
11.568	1622
11.576	1617
11.584	1613
11.592	1611
11.6	1610
11.608	1607
11.616	1604
11.624	1602
11.632	1599
11.64	1596
11.648	1594
11.656	1593
11.664	1593
11.672	1593
11.68	1595
11.688	1600
11.696	1604
11.704	1606
11.712	1609
11.72	1613
11.728	1615
11.736	1616
11.744	1619
11.752	1624
11.76	1628
11.768	1632
11.776	1634
11.784	1635
11.792	1636
11.8	1636
11.808	1638
11.816	1641
11.824	1645
11.832	1651
11.84	1656
11.848	1658
11.856	1661
11.864	1667
11.872	1677
11.88	1693
11.888	1716
11.896	1747
11.904	1787
11.912	1833
11.92	1882
11.928	1930
11.936	1978
11.944	2026
11.952	2072
11.96	2116
11.968	2153
11.976	2181
11.984	2199
11.992	2208
12	2210
12.008	2207
12.016	2199
12.024	2186
12.032	2169
12.04	2147.99999999999
12.048	2121
12.056	2090.99999999999
12.064	2059
12.072	2024.99999999999
12.08	1991
12.088	1960.99999999999
12.096	1939
12.104	1924
12.112	1912
12.12	1902
12.128	1910
12.136	1927
12.144	1932
12.152	1930
12.16	1925
12.168	1919
12.176	1914
12.184	1909
12.192	1905
12.2	1901
12.208	1897
12.216	1893
12.224	1887
12.232	1880
12.24	1872
12.248	1864
12.256	1856
12.264	1848
12.272	1840
12.28	1830
12.288	1819
12.296	1810
12.304	1801
12.312	1791
12.32	1780
12.328	1770
12.336	1762
12.344	1757
12.352	1755
12.36	1754
12.368	1753
12.376	1753
12.384	1753
12.392	1753
12.4	1753
12.408	1753
12.416	1751
12.424	1748
12.432	1746
12.44	1745
12.448	1745
12.456	1745
12.464	1745
12.472	1745
12.48	1745
12.488	1745
12.496	1745
12.504	1745
12.512	1745
12.52	1747
12.528	1750
12.536	1751
12.544	1752
12.552	1752
12.56	1752
12.568	1752
12.576	1752
12.584	1752
12.592	1752
12.6	1752
12.608	1752
12.616	1752
12.624	1752
12.632	1752
12.64	1752
12.648	1752
12.656	1752
12.664	1753
12.672	1757
12.68	1765
12.688	1779
12.696	1800
12.704	1828
12.712	1864
12.72	1908
12.728	1958
12.736	2009
12.744	2061
12.752	2115
12.76	2167
12.768	2214
12.776	2253
12.784	2285
12.792	2311
12.8	2330
12.808	2343
12.816	2350
12.824	2349
12.832	2341
12.84	2323
12.848	2298
12.856	2271
12.864	2244
12.872	2213
12.88	2181
12.888	2149
12.896	2117
12.904	2087
12.912	2060
12.92	2036
12.928	2016
12.936	2000
12.944	1988
12.952	1978
12.96	1969
12.968	1961
12.976	1953
12.984	1945
12.992	1939
13	1934
13.008	1929
13.016	1925
13.024	1919
13.032	1912
13.04	1904
13.048	1896
13.056	1888
13.064	1880
13.072	1874
13.08	1869
13.088	1863
13.096	1856
13.104	1846
13.112	1835
13.12	1826
13.128	1817
13.136	1809
13.144	1799
13.152	1788
13.16	1776
13.168	1765
13.176	1759
13.184	1756
13.192	1754
13.2	1753
13.208	1753
13.216	1753
13.224	1753
13.232	1751
13.24	1748
13.248	1744
13.256	1740
13.264	1736
13.272	1732
13.28	1728
13.288	1724
13.296	1722
13.304	1721
13.312	1721
13.32	1721
13.328	1719
13.336	1716
13.344	1712
13.352	1706
13.36	1699
13.368	1694
13.376	1689
13.384	1685
13.392	1683
13.4	1682
13.408	1681
13.416	1681
13.424	1681
13.432	1683
13.44	1686
13.448	1689
13.456	1693
13.464	1695
13.472	1698
13.48	1703
13.488	1710
13.496	1721
13.504	1740
13.512	1766
13.52	1799
13.528	1840
13.536	1890
13.544	1945
13.552	2001
13.56	2057
13.568	2113
13.576	2166
13.584	2215
13.592	2260
13.6	2298
13.608	2329
13.616	2353
13.624	2371
13.632	2382
13.64	2385
13.648	2381
13.656	2371
13.664	2354
13.672	2331
13.68	2304
13.688	2274
13.696	2245
13.704	2214
13.712	2183
13.72	2154
13.728	2125
13.736	2099
13.744	2078
13.752	2061
13.76	2047
13.768	2036
13.776	2028
13.784	2022
13.792	2015
13.8	2008
13.808	2002
13.816	1997
13.824	1991
13.832	1986
13.84	1981
13.848	1975
13.856	1970
13.864	1965
13.872	1961
13.88	1959
13.888	1958
13.896	1955
13.904	1952
13.912	1948
13.92	1942
13.928	1933
13.936	1923
13.944	1914
13.952	1905
13.96	1897
13.968	1891
13.976	1888
13.984	1886
13.992	1885
14	1885
14.008	1883
14.016	1880
14.024	1876
14.032	1872
14.04	1868
14.048	1862
14.056	1855
14.064	1848
14.072	1842
14.08	1839
14.088	1838
14.096	1837
14.104	1839
14.112	1842
14.12	1843
14.128	1844
14.136	1844
14.144	1842
14.152	1837
14.16	1831
14.168	1826
14.176	1813
14.184	1797
14.192	1789
14.2	1785
14.208	1785
14.216	1787
14.224	1786
14.232	1783
14.24	1779
14.248	1774
14.256	1771
14.264	1773
14.272	1777
14.28	1781
14.288	1788
14.296	1799
14.304	1817
14.312	1843.00000000001
14.32	1878
14.328	1922.00000000001
14.336	1974
14.344	2033
14.352	2101
14.36	2175
14.368	2251
14.376	2328
14.384	2404
14.392	2477
14.4	2544
14.408	2600
14.416	2643
14.424	2675
14.432	2698
14.44	2709
14.448	2710
14.456	2702
14.464	2686
14.472	2661
14.48	2629
14.488	2593
14.496	2555
14.504	2513
14.512	2467
14.52	2420
14.528	2374
14.536	2331
14.544	2292
14.552	2257
14.56	2228
14.568	2203
14.576	2181
14.584	2160
14.592	2139
14.6	2119
14.608	2099
14.616	2079
14.624	2059
14.632	2039
14.64	2021
14.648	2007
14.656	1989
14.664	1977
14.672	1964
14.68	1934
14.688	1920
14.696	1904
14.704	1877
14.712	1858
14.72	1836
14.728	1813
14.736	1789
14.744	1764
14.752	1741
14.76	1720
14.768	1702
14.776	1689
14.784	1678
14.792	1667
14.8	1657
14.808	1647
14.816	1637
14.824	1627
14.832	1612
14.84	1602
14.848	1592
14.856	1572
14.864	1562
14.872	1553
14.88	1543
14.888	1535
14.896	1526
14.904	1516
14.912	1506
14.92	1496
14.928	1488
14.936	1482
14.944	1477
14.952	1475
14.96	1474
14.968	1473
14.976	1470
14.984	1465
14.992	1463
15	1460
15.008	1456
15.016	1451
15.024	1446
15.032	1443
15.04	1440
15.048	1436
15.056	1431
15.064	1426
15.072	1423
15.08	1422
15.088	1421
15.096	1426
15.104	1438
15.112	1454
15.12	1477.00000000001
15.128	1512
15.136	1554.00000000001
15.144	1602
15.152	1656.00000000001
15.16	1713
15.168	1772.00000000001
15.176	1833
15.184	1896.00000000001
15.192	1952
15.2	1997.00000000001
15.208	2035
15.216	2067.00000000001
15.224	2090
15.232	2106
15.24	2114
15.248	2113
15.256	2106
15.264	2092
15.272	2070
15.28	2040.99999999999
15.288	2009
15.296	1975.99999999999
15.304	1945
15.312	1914.99999999999
15.32	1887
15.328	1862.99999999999
15.336	1841
15.344	1820
15.352	1799
15.36	1782
15.368	1768
15.376	1756
15.384	1745
15.392	1735
15.4	1725
15.408	1715
15.416	1705
15.424	1697
15.432	1693
15.44	1691
15.448	1690
15.456	1689
15.464	1689
15.472	1689
15.48	1689
15.488	1689
15.496	1687
15.504	1684
15.512	1682
15.52	1679
15.528	1676
15.536	1674
15.544	1673
15.552	1673
15.56	1670
15.568	1665
15.576	1661
15.584	1657
15.592	1652
15.6	1646
15.608	1643
15.616	1642
15.624	1639
15.632	1636
15.64	1634
15.648	1633
15.656	1633
15.664	1630
15.672	1625
15.68	1623
15.688	1620
15.696	1616
15.704	1614
15.712	1610
15.72	1605
15.728	1603
15.736	1602
15.744	1599
15.752	1596
15.76	1594
15.768	1595
15.776	1598
15.784	1599
15.792	1600
15.8	1600
15.808	1600
15.816	1600
15.824	1598
15.832	1595
15.84	1594
15.848	1593
15.856	1593
15.864	1593
15.872	1593
15.88	1593
15.888	1595
15.896	1601
15.904	1609
15.912	1620
15.92	1635
15.928	1655
15.936	1680
15.944	1710
15.952	1747
15.96	1791
15.968	1840
15.976	1896
15.984	1957
15.992	2018
16	2075
16.008	2129
16.016	2179.00000000002
16.024	2224
16.032	2261
16.04	2287
16.048	2302
16.056	2307
16.064	2305
16.072	2296
16.08	2280.99999999999
16.088	2262
16.096	2237
16.104	2207
16.112	2171.99999999998
16.12	2137
16.128	2103
16.136	2066
16.144	2031.99999999999
16.152	2005
16.16	1982
16.168	1962
16.176	1946.99999999999
16.184	1935
16.192	1931
16.2	1932
16.208	1928
16.216	1924
16.224	1920
16.232	1915
16.24	1912
16.248	1908
16.256	1902
16.264	1897
16.272	1895
16.28	1893
16.288	1891
16.296	1888
16.304	1882
16.312	1876
16.32	1868
16.328	1858
16.336	1850
16.344	1843
16.352	1836
16.36	1829
16.368	1823
16.376	1816
16.384	1810
16.392	1805
16.4	1800
16.408	1794
16.416	1789
16.424	1787
16.432	1786
16.44	1785
16.448	1785
16.456	1785
16.464	1785
16.472	1785
16.48	1785
16.488	1785
16.496	1785
16.504	1785
16.512	1785
16.52	1785
16.528	1785
16.536	1785
16.544	1785
16.552	1784
16.56	1782
16.568	1781
16.576	1781
16.584	1781
16.592	1781
16.6	1782
16.608	1783
16.616	1784
16.624	1784
16.632	1784
16.64	1783
16.648	1782
16.656	1781
16.664	1779
16.672	1776
16.68	1776
16.688	1778
16.696	1779
16.704	1781
16.712	1783
16.72	1786
16.728	1790
16.736	1797
16.744	1808
16.752	1823
16.76	1845
16.768	1871
16.776	1904
16.784	1943
16.792	1984
16.8	2026
16.808	2071
16.816	2116
16.824	2157
16.832	2192
16.84	2219
16.848	2243
16.856	2262
16.864	2273
16.872	2279
16.88	2280
16.888	2273
16.896	2260
16.904	2241
16.912	2218
16.92	2192
16.928	2165
16.936	2139
16.944	2115
16.952	2091
16.96	2068
16.968	2047
16.976	2029
16.984	2015
16.992	2003
17	1992
17.008	1984
17.016	1978
17.024	1971
17.032	1966
17.04	1962
17.048	1957
17.056	1951
17.064	1946
17.072	1942
17.08	1937
17.088	1933
17.096	1929
17.104	1923
17.112	1917
17.12	1911
17.128	1904
17.136	1897
17.144	1891
17.152	1883
17.16	1874
17.168	1865
17.176	1857
17.184	1848
17.192	1838
17.2	1830
17.208	1825
17.216	1821
17.224	1815
17.232	1808
17.24	1801
17.248	1795
17.256	1790
17.264	1787
17.272	1785
17.28	1783
17.288	1782
17.296	1779
17.304	1776
17.312	1774
17.32	1773
17.328	1775
17.336	1778
17.344	1780
17.352	1782
17.36	1783
17.368	1784
17.376	1784
17.384	1784
17.392	1784
17.4	1784
17.408	1784
17.416	1784
17.424	1784
17.432	1784
17.44	1784
17.448	1784
17.456	1784
17.464	1784
17.472	1783
17.48	1782
17.488	1779
17.496	1776
17.504	1774
17.512	1775
17.52	1778
17.528	1780
17.536	1782
17.544	1783
17.552	1787
17.56	1796
17.568	1809
17.576	1828
17.584	1851
17.592	1880
17.6	1916
17.608	1956
17.616	1996
17.624	2038
17.632	2083
17.64	2129
17.648	2169
17.656	2202
17.664	2229
17.672	2248
17.68	2258
17.688	2263
17.696	2263
17.704	2257
17.712	2244
17.72	2225
17.728	2205
17.736	2183
17.744	2157
17.752	2130
17.76	2104
17.768	2079
17.776	2057
17.784	2037
17.792	2020
17.8	2006
17.808	1996
17.816	1986
17.824	1975
17.832	1967
17.84	1962
17.848	1957
17.856	1953
17.864	1953
17.872	1955
17.88	1956
17.888	1956
17.896	1956
17.904	1954
17.912	1949
17.92	1945
17.928	1942
17.936	1939
17.944	1936
17.952	1930
17.96	1925
17.968	1921
17.976	1916
17.984	1910
17.992	1905
18	1901
18.008	1897
18.016	1895
18.024	1893
18.032	1889
18.04	1885
18.048	1881
18.056	1876
18.064	1872
18.072	1868
18.08	1864
18.088	1862
18.096	1861
18.104	1861
18.112	1861
18.12	1861
18.128	1861
18.136	1861
18.144	1861
18.152	1861
18.16	1861
18.168	1861
18.176	1859
18.184	1856
18.192	1852
18.2	1848
18.208	1845
18.216	1843
18.224	1843
18.232	1844
18.24	1818.99999999999
18.248	1782
18.256	1766
18.264	1761
18.272	1759
18.28	1758
18.288	1754
18.296	1749
18.304	1747
18.312	1743
18.32	1738
18.328	1738
18.336	1744
18.344	1753
18.352	1770
18.36	1796
18.368	1826.00000000001
18.376	1864
18.384	1913
18.392	1974
18.4	2046.00000000003
18.408	2124
18.416	2211
18.424	2303
18.432	2394.00000000004
18.44	2487
18.448	2579
18.456	2660
18.464	2729
18.472	2788
18.48	2832
18.488	2866
18.496	2889
18.504	2901
18.512	2904
18.52	2896
18.528	2880
18.536	2854
18.544	2817
18.552	2776
18.56	2732
18.568	2683
18.576	2629
18.584	2575
18.592	2521
18.6	2467
18.608	2422
18.616	2387
18.624	2361
18.632	2339
18.64	2319
18.648	2303
18.656	2286
18.664	2268
18.672	2253
18.68	2237
18.688	2220
18.696	2205
18.704	2189
18.712	2169
18.72	2150
18.728	2131
18.736	2113
18.744	2095
18.752	2074
18.76	2051
18.768	2028
18.776	2004
18.784	1980
18.792	1956
18.8	1935
18.808	1919
18.816	1905
18.824	1892
18.832	1879
18.84	1867
18.848	1858
18.856	1848
18.864	1835
18.872	1823
18.88	1811
18.888	1799
18.896	1787
18.904	1772
18.912	1755
18.92	1738
18.928	1720
18.936	1702
18.944	1684
18.952	1669
18.96	1656
18.968	1643
18.976	1634
18.984	1626
18.992	1619
19	1613
19.008	1604
19.016	1596
19.024	1592
19.032	1587
19.04	1582
19.048	1576
19.056	1570
19.064	1564
19.072	1558
19.08	1552
19.088	1546
19.096	1543
19.104	1539
19.112	1534
19.12	1528
19.128	1519
19.136	1512
19.144	1505
19.152	1499
19.16	1499
19.168	1505
19.176	1514
19.184	1524
19.192	1538
19.2	1560
19.208	1586.00000000001
19.216	1614
19.224	1652
19.232	1701
19.24	1758.00000000003
19.248	1824
19.256	1896
19.264	1968
19.272	2037.00000000003
19.28	2102
19.288	2161
19.296	2212
19.304	2252.00000000002
19.312	2281
19.32	2302
19.328	2312
19.336	2311
19.344	2302
19.352	2282
19.36	2251
19.368	2211.99999999998
19.376	2165
19.384	2115
19.392	2066
19.4	2019.99999999998
19.408	1979
19.416	1941
19.424	1907
19.432	1878.99999999999
19.44	1854
19.448	1829
19.456	1805
19.464	1784
19.472	1767
19.48	1750
19.488	1735
19.496	1725
19.504	1714
19.512	1702
19.52	1693
19.528	1686
19.536	1676
19.544	1662
19.552	1646
19.56	1635
19.568	1630
19.576	1627
19.584	1623
19.592	1618
19.6	1612
19.608	1606
19.616	1603
19.624	1602
19.632	1601
19.64	1601
19.648	1601
19.656	1598
19.664	1593
19.672	1588
19.68	1579
19.688	1572
19.696	1568
19.704	1566
19.712	1565
19.72	1565
19.728	1565
19.736	1565
19.744	1565
19.752	1562
19.76	1557
19.768	1555
19.776	1554
19.784	1550
19.792	1545
19.8	1543
19.808	1542
19.816	1541
19.824	1541
19.832	1538
19.84	1533
19.848	1531
19.856	1530
19.864	1532
19.872	1536
19.88	1538
19.888	1539
19.896	1540
19.904	1543
19.912	1548
19.92	1547
19.928	1544
19.936	1542
19.944	1541
19.952	1541
19.96	1541
19.968	1544
19.976	1551
19.984	1561
19.992	1575
20	1594
20.008	1612
20.016	1630.00000000001
20.024	1651
20.032	1674
20.04	1703
20.048	1745.00000000002
20.056	1795
20.064	1855
20.072	1924
20.08	1994.00000000003
20.088	2065
20.096	2134
20.104	2198
20.112	2254.00000000002
20.12	2300
20.128	2335
20.136	2359
20.144	2371
20.152	2371
20.16	2362
20.168	2345
20.176	2324.99999999999
20.184	2297
20.192	2262
20.2	2223
20.208	2179.99999999998
20.216	2137
20.224	2098
20.232	2060
20.24	2028.99999999999
20.248	2005
20.256	1984
20.264	1970
20.272	1960
20.28	1949
20.288	1926
20.296	1897
20.304	1878.99999999999
20.312	1868
20.32	1860
20.328	1854
20.336	1849
20.344	1845
20.352	1841
20.36	1835
20.368	1828
20.376	1820
20.384	1813
20.392	1807
20.4	1798
20.408	1787
20.416	1778
20.424	1767
20.432	1757
20.44	1749
20.448	1739
20.456	1728
20.464	1718
20.472	1709
20.48	1701
20.488	1694
20.496	1689
20.504	1687
20.512	1686
20.52	1685
20.528	1683
20.536	1680
20.544	1678
20.552	1677
20.56	1677
20.568	1675
20.576	1672
20.584	1670
20.592	1671
20.6	1674
20.608	1675
20.616	1678
20.624	1681
20.632	1683
20.64	1684
20.648	1684
20.656	1684
20.664	1684
20.672	1684
20.68	1684
20.688	1684
20.696	1684
20.704	1684
20.712	1684
20.72	1684
20.728	1684
20.736	1684
20.744	1684
20.752	1684
20.76	1684
20.768	1684
20.776	1684
20.784	1684
20.792	1684
20.8	1684
20.808	1684
20.816	1685
20.824	1689
20.832	1697
20.84	1711
20.848	1729
20.856	1753
20.864	1784
20.872	1821
20.88	1865
20.888	1912
20.896	1959
20.904	2007
20.912	2056
20.92	2099
20.928	2134
20.936	2160
20.944	2180
20.952	2194
20.96	2201
20.968	2203
20.976	2199
20.984	2188
20.992	2172
21	2153
21.008	2131
21.016	2105.99999999999
21.024	2078
21.032	2051
21.04	2027
21.048	2003.99999999999
21.056	1980
21.064	1959
21.072	1942
21.08	1926.99999999999
21.088	1918
21.096	1911
21.104	1906
21.112	1901
21.12	1897
21.128	1895
21.136	1894
21.144	1893
21.152	1893
21.16	1893
21.168	1893
21.176	1891
21.184	1886
21.192	1881
21.2	1878
21.208	1871
21.216	1862
21.224	1853
21.232	1845
21.24	1837
21.248	1829
21.256	1821
21.264	1814
21.272	1807
21.28	1800
21.288	1792
21.296	1782
21.304	1771
21.312	1762
21.32	1754
21.328	1747
21.336	1738
21.344	1727
21.352	1718
21.36	1709
21.368	1701
21.376	1694
21.384	1689
21.392	1687
21.4	1686
21.408	1685
21.416	1685
21.424	1685
21.432	1685
21.44	1685
21.448	1683
21.456	1680
21.464	1678
21.472	1677
21.48	1677
21.488	1677
21.496	1677
21.504	1677
21.512	1677
21.52	1679
21.528	1682
21.536	1683
21.544	1684
21.552	1684
21.56	1684
21.568	1684
21.576	1684
21.584	1684
21.592	1684
21.6	1684
21.608	1684
21.616	1684
21.624	1684
21.632	1684
21.64	1687
21.648	1696
21.656	1710
21.664	1732
21.672	1761
21.68	1799
21.688	1845
21.696	1894
21.704	1944
21.712	1997
21.72	2051
21.728	2099
21.736	2139
21.744	2174
21.752	2205
21.76	2230
21.768	2247
21.776	2258
21.784	2261
21.792	2260
21.8	2252
21.808	2234
21.816	2210
21.824	2183
21.832	2153
21.84	2121
21.848	2088
21.856	2054
21.864	2022
21.872	1991
21.88	1963
21.888	1942
21.896	1927
21.904	1916
21.912	1906
21.92	1897
21.928	1889
21.936	1880
21.944	1870
21.952	1861
21.96	1853
21.968	1847
21.976	1842
21.984	1837
21.992	1835
22	1834
22.008	1833
22.016	1831
22.024	1826
22.032	1819
22.04	1811
22.048	1802
22.056	1791
22.064	1780
22.072	1772
22.08	1766
22.088	1759
22.096	1753
22.104	1749
22.112	1745
22.12	1739
22.128	1732
22.136	1726
22.144	1721
22.152	1715
22.16	1710
22.168	1705
22.176	1699
22.184	1693
22.192	1689
22.2	1687
22.208	1686
22.216	1685
22.224	1685
22.232	1685
22.24	1685
22.248	1685
22.256	1685
22.264	1685
22.272	1685
22.28	1685
22.288	1685
22.296	1685
22.304	1685
22.312	1685
22.32	1685
22.328	1685
22.336	1669.99999999999
22.344	1647
22.352	1636
22.36	1630
22.368	1627
22.376	1626
22.384	1625
22.392	1627
22.4	1630
22.408	1631
22.416	1632
22.424	1632
22.432	1635
22.44	1643
22.448	1655
22.456	1675
22.464	1705.00000000002
22.472	1745
22.48	1796
22.488	1860
22.496	1937.00000000004
22.504	2021
22.512	2113
22.52	2209
22.528	2302
22.536	2393
22.544	2481
22.552	2562
22.56	2630
22.568	2680
22.576	2716
22.584	2740
22.592	2752
22.6	2752
22.608	2738
22.616	2715
22.624	2690
22.632	2663
22.64	2630
22.648	2590
22.656	2548
22.664	2505
22.672	2462
22.68	2415
22.688	2369
22.696	2329
22.704	2295
22.712	2267
22.72	2242
22.728	2220
22.736	2206
22.744	2196
22.752	2186
22.76	2176
22.768	2165
22.776	2154
22.784	2142
22.792	2128
22.8	2113
22.808	2100
22.816	2087
22.824	2076
22.832	2065
22.84	2054
22.848	2042
22.856	2028
22.864	2013
22.872	1997
22.88	1980
22.888	1966
22.896	1954
22.904	1942
22.912	1933
22.92	1926
22.928	1919
22.936	1916
22.944	1914
22.952	1910
22.96	1905
22.968	1901
22.976	1897
22.984	1892
22.992	1883
23	1873
23.008	1862
23.016	1853
23.024	1847
23.032	1839
23.04	1829
23.048	1821
23.056	1814
23.064	1804
23.072	1796
23.08	1790
23.088	1779
23.096	1765
23.104	1752
23.112	1742
23.12	1735
23.128	1727
23.136	1720
23.144	1713
23.152	1704
23.16	1693
23.168	1683
23.176	1673
23.184	1662
23.192	1648
23.2	1636
23.208	1630
23.216	1627
23.224	1626
23.232	1625
23.24	1625
23.248	1625
23.256	1625
23.264	1625
23.272	1625
23.28	1627
23.288	1636
23.296	1651
23.304	1676.00000000001
23.312	1711
23.32	1757
23.328	1816
23.336	1884.00000000003
23.344	1957
23.352	2030
23.36	2100
23.368	2166.00000000003
23.376	2224
23.384	2267
23.392	2295
23.4	2312.00000000001
23.408	2320
23.416	2321
23.424	2316
23.432	2304.99999999999
23.44	2286
23.448	2256
23.456	2216
23.464	2167.99999999998
23.472	2119
23.48	2070
23.488	2022
23.496	1980.99999999998
23.504	1945
23.512	1910
23.52	1878
23.528	1850.99999999999
23.536	1826
23.544	1802
23.552	1779
23.56	1759
23.568	1744
23.576	1731
23.584	1719
23.592	1707
23.6	1695
23.608	1684
23.616	1673
23.624	1662
23.632	1650
23.64	1639
23.648	1632
23.656	1625
23.664	1616
23.672	1605
23.68	1595
23.688	1588
23.696	1581
23.704	1572
23.712	1561
23.72	1553
23.728	1546
23.736	1537
23.744	1531
23.752	1528
23.76	1523
23.768	1518
23.776	1512
23.784	1506
23.792	1503
23.8	1502
23.808	1498
23.816	1490
23.824	1483
23.832	1478
23.84	1473
23.848	1468
23.856	1462
23.864	1459
23.872	1458
23.88	1457
23.888	1457
23.896	1457
23.904	1457
23.912	1457
23.92	1457
23.928	1457
23.936	1457
23.944	1457
23.952	1457
23.96	1457
23.968	1457
23.976	1457
23.984	1460
23.992	1464
24	1466
24.008	1467
24.016	1468
24.024	1468
24.032	1468
24.04	1468
24.048	1468
24.056	1470
24.064	1476
24.072	1485
24.08	1493
24.088	1500
24.096	1509
24.104	1522
24.112	1539.00000000001
24.12	1562
24.128	1592
24.136	1629
24.144	1676.00000000002
24.152	1733
24.16	1798
24.168	1866
24.176	1931.00000000003
24.184	1989
24.192	2041
24.2	2087
24.208	2124.00000000001
24.216	2153
24.224	2176
24.232	2190
24.24	2194
24.248	2188
24.256	2174
24.264	2153
24.272	2125.99999999999
24.28	2095
24.288	2061
24.296	2024
24.304	1987.99999999998
24.312	1956
24.32	1926
24.328	1897
24.336	1871.99999999999
24.344	1848
24.352	1824
24.36	1804
24.368	1788.99999999999
24.376	1779
24.384	1775
24.392	1774
24.4	1771
24.408	1768
24.416	1764
24.424	1760
24.432	1755
24.44	1750
24.448	1745
24.456	1741
24.464	1737
24.472	1731
24.48	1722
24.488	1710
24.496	1699
24.504	1690
24.512	1681
24.52	1675
24.528	1672
24.536	1668
24.544	1664
24.552	1662
24.56	1659
24.568	1653
24.576	1647
24.584	1644
24.592	1642
24.6	1641
24.608	1641
24.616	1644
24.624	1648
24.632	1647
24.64	1644
24.648	1642
24.656	1641
24.664	1639
24.672	1636
24.68	1634
24.688	1633
24.696	1633
24.704	1635
24.712	1638
24.72	1639
24.728	1640
24.736	1640
24.744	1640
24.752	1640
24.76	1640
24.768	1640
24.776	1640
24.784	1640
24.792	1643
24.8	1648
24.808	1650
24.816	1651
24.824	1652
24.832	1652
24.84	1652
24.848	1654
24.856	1657
24.864	1661
24.872	1665
24.88	1667
24.888	1668
24.896	1668
24.904	1668
24.912	1670
24.92	1677
24.928	1690
24.936	1709
24.944	1738
24.952	1777
24.96	1826
24.968	1878
24.976	1930
24.984	1984
24.992	2037
25	2088
25.008	2135
25.016	2175.00000000002
25.024	2218
25.032	2238
25.04	2251
25.048	2254
25.056	2244
25.064	2227
25.072	2194
25.08	2166.99999999999
25.088	2137
25.096	2104
25.104	2069
25.112	2036.99999999999
25.12	2006
25.128	1977
25.136	1954
25.144	1932.99999999999
25.152	1917
25.16	1904
25.168	1887
25.176	1877
25.184	1870
25.192	1862
25.2	1855
25.208	1847
25.216	1840
25.224	1834
25.232	1829
25.24	1825
25.248	1819
25.256	1807
25.264	1798
25.272	1789
25.28	1775
25.288	1763
25.296	1752
25.304	1742
25.312	1733
25.32	1725
25.328	1717
25.336	1708
25.344	1698
25.352	1689
25.36	1681
25.368	1675
25.376	1672
25.384	1668
25.392	1664
25.4	1660
25.408	1656
25.416	1654
25.424	1653
25.432	1655
25.44	1658
25.448	1659
25.456	1662
25.464	1663
25.472	1662
25.48	1661
25.488	1661
25.496	1661
25.504	1661
25.512	1661
25.52	1661
25.528	1661
25.536	1663
25.544	1666
25.552	1667
25.56	1668
25.568	1666
25.576	1665
25.584	1667
25.592	1668
25.6	1668
25.608	1668
25.616	1668
25.624	1668
25.632	1668
25.64	1668
25.648	1668
25.656	1668
25.664	1668
25.672	1668
25.68	1668
25.688	1668
25.696	1670
25.704	1677
25.712	1692
25.72	1712
25.728	1742
25.736	1784
25.744	1833
25.752	1891
25.76	1953
25.768	2016
25.776	2080
25.784	2139
25.792	2191
25.8	2234
25.808	2268
25.816	2294
25.824	2311
25.832	2322
25.84	2325
25.848	2323
25.856	2313
25.864	2295
25.872	2271
25.88	2241
25.888	2208
25.896	2174
25.904	2140
25.912	2105
25.92	2070
25.928	2037
25.936	2010
25.944	1985
25.952	1965
25.96	1950
25.968	1937
25.976	1927
25.984	1918
25.992	1909
26	1900
26.008	1890
26.016	1881
26.024	1873
26.032	1865
26.04	1857
26.048	1848
26.056	1838
26.064	1827
26.072	1816
26.08	1802.99999999999
26.088	1790
26.096	1777
26.104	1764
26.112	1751.99999999999
26.12	1740
26.128	1728
26.136	1715
26.144	1699.99999999999
26.152	1686
26.16	1675
26.168	1666
26.176	1656
26.184	1648
26.192	1644
26.2	1642
26.208	1641
26.216	1639
26.224	1636
26.232	1632
26.24	1626
26.248	1619
26.256	1614
26.264	1611
26.272	1610
26.28	1611
26.288	1614
26.296	1615
26.304	1616
26.312	1616
26.32	1616
26.328	1614
26.336	1611
26.344	1610
26.352	1609
26.36	1609
26.368	1611
26.376	1614
26.384	1617
26.392	1623
26.4	1628
26.408	1633
26.416	1639
26.424	1642
26.432	1643
26.44	1644
26.448	1644
26.456	1644
26.464	1647
26.472	1652
26.48	1659
26.488	1670
26.496	1680
26.504	1691
26.512	1705
26.52	1725
26.528	1754.00000000001
26.536	1793
26.544	1846
26.552	1909
26.56	1981.00000000003
26.568	2061
26.576	2147
26.584	2235
26.592	2319.00000000004
26.6	2399
26.608	2474
26.616	2541
26.624	2600.00000000002
26.632	2645
26.64	2676
26.648	2694
26.656	2697
26.664	2691
26.672	2678
26.68	2657
26.688	2630
26.696	2597
26.704	2563
26.712	2525
26.72	2484
26.728	2441
26.736	2398
26.744	2357
26.752	2321
26.76	2290
26.768	2263
26.776	2239
26.784	2219
26.792	2204
26.8	2191
26.808	2179
26.816	2167
26.824	2156
26.832	2148
26.84	2138
26.848	2125
26.856	2114
26.864	2102
26.872	2091
26.88	2078
26.888	2063
26.896	2048
26.904	2031
26.912	2018
26.92	2006
26.928	1994
26.936	1983
26.944	1973
26.952	1962
26.96	1951
26.968	1941
26.976	1930
26.984	1918
26.992	1909
27	1903
27.008	1898
27.016	1895
27.024	1891
27.032	1886
27.04	1880
27.048	1872
27.056	1866
27.064	1863
27.072	1859
27.08	1854
27.088	1854
27.096	1857
27.104	1859
27.112	1857
27.12	1853
27.128	1851
27.136	1850
27.144	1849
27.152	1849
27.16	1849
27.168	1849
27.176	1846
27.184	1841
27.192	1837
27.2	1833
27.208	1831
27.216	1827
27.224	1822
27.232	1819
27.24	1818
27.248	1814
27.256	1809
27.264	1804
27.272	1798
27.28	1793
27.288	1786
27.296	1779
27.304	1776
27.312	1774
27.32	1776
27.328	1782
27.336	1796.00000000001
27.344	1822
27.352	1859
27.36	1908
27.368	1964.00000000003
27.376	2027
27.384	2100
27.392	2179
27.4	2262.00000000004
27.408	2344
27.416	2420
27.424	2487
27.432	2548.00000000003
27.44	2600
27.448	2637
27.456	2659
27.464	2670
27.472	2672
27.48	2665
27.488	2649
27.496	2621.99999999999
27.504	2583
27.512	2537
27.52	2485
27.528	2428.99999999998
27.536	2374
27.544	2319
27.552	2267
27.56	2216.99999999998
27.568	2168
27.576	2121
27.584	2076
27.592	2036.99999999999
27.6	2010
27.608	1988
27.616	1969
27.624	1954.99999999999
27.632	1943
27.64	1931
27.648	1917
27.656	1902
27.664	1886
27.672	1870
27.68	1856
27.688	1841
27.696	1826
27.704	1812
27.712	1797
27.72	1782
27.728	1766
27.736	1750
27.744	1734
27.752	1718
27.76	1702
27.768	1686
27.776	1675
27.784	1668
27.792	1659
27.8	1652
27.808	1645
27.816	1637
27.824	1631
27.832	1625
27.84	1616
27.848	1605
27.856	1595
27.864	1588
27.872	1581
27.88	1572
27.888	1564
27.896	1558
27.904	1550
27.912	1540
27.92	1530
27.928	1520
27.936	1509
27.944	1498
27.952	1489
27.96	1483
27.968	1475
27.976	1465
27.984	1455
27.992	1445
28	1437
28.008	1430
28.016	1423
28.024	1420
28.032	1418
28.04	1417
28.048	1417
28.056	1415
28.064	1412
28.072	1410
28.08	1406
28.088	1401
28.096	1399
28.104	1401
28.112	1405
28.12	1409
28.128	1416
28.136	1425
28.144	1435
28.152	1445
28.16	1458
28.168	1478
28.176	1507.00000000001
28.184	1546
28.192	1592
28.2	1642
28.208	1697.00000000003
28.216	1757
28.224	1819
28.232	1882
28.24	1940.00000000002
28.248	1991
28.256	2039
28.264	2079
28.272	2109.00000000001
28.28	2132
28.288	2146
28.296	2153
28.304	2152
28.312	2140
28.32	2120
28.328	2094
28.336	2061.99999999998
28.344	2027
28.352	1994
28.36	1961
28.368	1928.99999999999
28.376	1900
28.384	1874
28.392	1850
28.4	1829.99999999999
28.408	1814
28.416	1801
28.424	1790
28.432	1777.99999999999
28.44	1767
28.448	1781
28.456	1809
28.464	1821
28.472	1825
28.48	1825
28.488	1823
28.496	1820
28.504	1816
28.512	1812
28.52	1806
28.528	1800
28.536	1794
28.544	1789
28.552	1787
28.56	1786
28.568	1785
28.576	1785
28.584	1785
28.592	1785
28.6	1783
28.608	1780
28.616	1776
28.624	1772
28.632	1770
28.64	1771
28.648	1774
28.656	1775
28.664	1776
28.672	1776
28.68	1776
28.688	1776
28.696	1774
28.704	1771
28.712	1770
28.72	1769
28.728	1769
28.736	1771
28.744	1774
28.752	1775
28.76	1778
28.768	1781
28.776	1783
28.784	1784
28.792	1784
28.8	1782
28.808	1779
28.816	1778
28.824	1777
28.832	1777
28.84	1777
28.848	1779
28.856	1782
28.864	1783
28.872	1786
28.88	1789
28.888	1791
28.896	1790
28.904	1787
28.912	1786
28.92	1787
28.928	1790
28.936	1791
28.944	1792
28.952	1792
28.96	1792
28.968	1793
28.976	1797
28.984	1805
28.992	1818
29	1837
29.008	1864
29.016	1897.00000000002
29.024	1938
29.032	1982
29.04	2026
29.048	2070.00000000002
29.056	2112
29.064	2151
29.072	2187
29.08	2216.00000000001
29.088	2238
29.096	2253
29.104	2261
29.112	2263
29.12	2258
29.128	2248
29.136	2234
29.144	2216.99999999999
29.152	2198
29.16	2176
29.168	2152
29.176	2124.99999999999
29.184	2099
29.192	2075
29.2	2054
29.208	2035.99999999999
29.216	2022
29.224	2011
29.232	2002
29.24	1995
29.248	1990
29.256	1983
29.264	1977
29.272	1973
29.28	1969
29.288	1965
29.296	1961
29.304	1957
29.312	1955
29.32	1952
29.328	1948
29.336	1944
29.344	1938
29.352	1932
29.36	1926
29.368	1917
29.376	1907
29.384	1898
29.392	1890
29.4	1883
29.408	1876
29.416	1868
29.424	1858
29.432	1848
29.44	1840
29.448	1832
29.456	1824
29.464	1816
29.472	1810
29.48	1805
29.488	1800
29.496	1796
29.504	1794
29.512	1793
29.52	1793
29.528	1793
29.536	1793
29.544	1793
29.552	1793
29.56	1793
29.568	1793
29.576	1793
29.584	1793
29.592	1793
29.6	1793
29.608	1793
29.616	1793
29.624	1793
29.632	1793
29.64	1793
29.648	1793
29.656	1793
29.664	1793
29.672	1793
29.68	1793
29.688	1793
29.696	1793
29.704	1793
29.712	1793
29.72	1791
29.728	1788
29.736	1786
29.744	1787
29.752	1790
29.76	1791
29.768	1792
29.776	1792
29.784	1793
29.792	1799
29.8	1810
29.808	1826
29.816	1850
29.824	1882
29.832	1922
29.84	1968
29.848	2017
29.856	2068
29.864	2117
29.872	2164
29.88	2207
29.888	2243
29.896	2272
29.904	2296
29.912	2313
29.92	2323
29.928	2328
29.936	2327
29.944	2318
29.952	2302
29.96	2283
29.968	2261
29.976	2235
29.984	2207
29.992	2179
30	2150
30.008	2120
30.016	2092.99999999999
30.024	2071
30.032	2052
30.04	2036
30.048	2025
30.056	2019
30.064	2014
30.072	2007
30.08	1998
30.088	1987
30.096	1980
30.104	1975
30.112	1972
30.12	1968
30.128	1964
30.136	1960
30.144	1956
30.152	1952
30.16	1946
30.168	1938
30.176	1929
30.184	1921
30.192	1913
30.2	1905
30.208	1897
30.216	1890
30.224	1883
30.232	1876
30.24	1868
30.248	1860
30.256	1852
30.264	1845
30.272	1841
30.28	1837
30.288	1829
30.296	1819
30.304	1810
30.312	1802
30.32	1797
30.328	1793
30.336	1789
30.344	1787
30.352	1786
30.36	1785
30.368	1783
30.376	1780
30.384	1778
30.392	1777
30.4	1775
30.408	1770
30.416	1765
30.424	1762
30.432	1757
30.44	1753
30.448	1751
30.456	1750
30.464	1749
30.472	1749
30.48	1751
30.488	1754
30.496	1718.99999999998
30.504	1669
30.512	1647
30.52	1636
30.528	1627
30.536	1620
30.544	1613
30.552	1607
30.56	1607
30.568	1613
30.576	1624
30.584	1640
30.592	1657.00000000001
30.6	1674
30.608	1693
30.616	1717
30.624	1746.00000000001
30.632	1785
30.64	1838
30.648	1901
30.656	1972.00000000003
30.664	2046
30.672	2123
30.68	2204
30.688	2283.00000000003
30.696	2354
30.704	2417
30.712	2474
30.72	2521
30.728	2556
30.736	2576
30.744	2586
30.752	2586
30.76	2572
30.768	2548
30.776	2519
30.784	2485
30.792	2443
30.8	2400
30.808	2359
30.816	2316
30.824	2271
30.832	2227
30.84	2186
30.848	2148
30.856	2115
30.864	2091
30.872	2070
30.88	2050
30.888	2035
30.896	2026
30.904	2021
30.912	2019
30.92	2018
30.928	2017
30.936	2017
30.944	2017
30.952	2017
30.96	2017
30.968	2017
30.976	2017
30.984	2017
30.992	2014
31	2006
31.008	1999
31.016	1993
31.024	1987
31.032	1981
31.04	1975
31.048	1970
31.056	1965
31.064	1963
31.072	1959
31.08	1954
31.088	1951
31.096	1950
31.104	1949
31.112	1946
31.12	1938
31.128	1931
31.136	1925
31.144	1917
31.152	1911
31.16	1908
31.168	1906
31.176	1905
31.184	1905
31.192	1902
31.2	1897
31.208	1892
31.216	1886
31.224	1880
31.232	1874
31.24	1868
31.248	1862
31.256	1859
31.264	1858
31.272	1857
31.28	1857
31.288	1857
31.296	1857
31.304	1857
31.312	1860
31.32	1864
31.328	1866
31.336	1867
31.344	1868
31.352	1868
31.36	1868
31.368	1868
31.376	1871
31.384	1879
31.392	1889
31.4	1899.00000000001
31.408	1912
31.416	1932
31.424	1962
31.432	1997.00000000002
31.44	2037
31.448	2091
31.456	2160
31.464	2238.00000000004
31.472	2322
31.48	2412
31.488	2504
31.496	2592.00000000004
31.504	2670
31.512	2740
31.52	2803
31.528	2854.00000000002
31.536	2893
31.544	2922
31.552	2939
31.56	2945
31.568	2939
31.576	2919
31.584	2887
31.592	2848.99999999998
31.6	2802
31.608	2750
31.616	2699
31.624	2645.99999999998
31.632	2591
31.64	2536
31.648	2480
31.656	2428.99999999998
31.664	2384
31.672	2345
31.68	2312
31.688	2280.99999999999
31.696	2255
31.704	2228
31.712	2200
31.72	2173.99999999999
31.728	2150
31.736	2127
31.744	2105
31.752	2086
31.76	2067
31.768	2047
31.776	2029
31.784	2011
31.792	1993
31.8	1976
31.808	1956
31.816	1935
31.824	1914
31.832	1891
31.84	1872
31.848	1854
31.856	1833
31.864	1812
31.872	1790
31.88	1768
31.888	1746
31.896	1726
31.904	1708
31.912	1691
31.92	1680
31.928	1671
31.936	1661
31.944	1651
31.952	1641
31.96	1630
31.968	1621
31.976	1614
31.984	1604
31.992	1596
32	1590
32.008	1582
32.016	1575
32.024	1569
32.032	1559.99999999999
32.04	1549
32.048	1539
32.056	1532
32.064	1528
32.072	1526
32.08	1525
32.088	1525
32.096	1525
32.104	1522
32.112	1517
32.12	1515
32.128	1511
32.136	1506
32.144	1503
32.152	1502
32.16	1501
32.168	1498
32.176	1493
32.184	1488
32.192	1482
32.2	1479
32.208	1478
32.216	1477
32.224	1477
32.232	1480
32.24	1487
32.248	1500
32.256	1520
32.264	1549
32.272	1586
32.28	1626
32.288	1674.00000000005
32.296	1729
32.304	1788
32.312	1851
32.32	1917
32.328	1981
32.336	2041
32.344	2093
32.352	2135.00000000003
32.36	2170
32.368	2196
32.376	2212
32.384	2220
32.392	2218
32.4	2208
32.408	2192
32.416	2167.99999999998
32.424	2139
32.432	2105
32.44	2069
32.448	2034
32.456	2002
32.464	1972
32.472	1943
32.48	1920.99999999998
32.488	1901
32.496	1882
32.504	1869
32.512	1861
32.52	1852
32.528	1841
32.536	1830
32.544	1816.99999999999
32.552	1805
32.56	1796
32.568	1788
32.576	1780
32.584	1774
32.592	1770
32.6	1765
32.608	1757.99999999999
32.616	1749
32.624	1741
32.632	1732
32.64	1724
32.648	1720
32.656	1716
32.664	1711
32.672	1708
32.68	1704
32.688	1700
32.696	1696
32.704	1692
32.712	1689
32.72	1687
32.728	1684
32.736	1677.99999999999
32.744	1671
32.752	1666
32.76	1663
32.768	1662
32.776	1661
32.784	1663
32.792	1666
32.8	1667
32.808	1668
32.816	1668
32.824	1668
32.832	1668
32.84	1668
32.848	1668
32.856	1668
32.864	1668
32.872	1668
32.88	1668
32.888	1666
32.896	1663
32.904	1661
32.912	1659
32.92	1658
32.928	1658
32.936	1659
32.944	1662
32.952	1665
32.96	1667
32.968	1668
32.976	1668
32.984	1668
32.992	1668
33	1668
33.008	1670
33.016	1675
33.024	1681
33.032	1687
33.04	1692
33.048	1696
33.056	1703
33.064	1710
33.072	1716
33.08	1727
33.088	1743
33.096	1765.00000000002
33.104	1797
33.112	1835
33.12	1876
33.128	1918
33.136	1959
33.144	1999
33.152	2036
33.16	2069.00000000003
33.168	2098
33.176	2120
33.184	2134
33.192	2141
33.2	2144
33.208	2142
33.216	2137
33.224	2127.99999999999
33.232	2113
33.24	2094
33.248	2071
33.256	2047
33.264	2021
33.272	1996
33.28	1973
33.288	1952.99999999998
33.296	1938
33.304	1925
33.312	1914
33.32	1905
33.328	1897
33.336	1888
33.344	1878
33.352	1868.99999999999
33.36	1863
33.368	1859
33.376	1856
33.384	1854
33.392	1853
33.4	1853
33.408	1851
33.416	1848
33.424	1844
33.432	1839
33.44	1834
33.448	1827
33.456	1821
33.464	1815
33.472	1808
33.48	1799.99999999999
33.488	1793
33.496	1787
33.504	1780
33.512	1773
33.52	1765
33.528	1756
33.536	1748
33.544	1739.99999999999
33.552	1732
33.56	1725
33.568	1721
33.576	1717
33.584	1712
33.592	1708
33.6	1706
33.608	1705
33.616	1705
33.624	1705
33.632	1705
33.64	1703
33.648	1700
33.656	1698
33.664	1697
33.672	1697
33.68	1697
33.688	1697
33.696	1697
33.704	1697
33.712	1697
33.72	1697
33.728	1697
33.736	1695
33.744	1692
33.752	1690
33.76	1689
33.768	1689
33.776	1689
33.784	1689
33.792	1689
33.8	1691
33.808	1694
33.816	1697
33.824	1701
33.832	1704
33.84	1708
33.848	1712
33.856	1714
33.864	1715
33.872	1717
33.88	1721
33.888	1730
33.896	1744
33.904	1763
33.912	1790
33.92	1823
33.928	1862
33.936	1905
33.944	1951
33.952	1996
33.96	2038
33.968	2078
33.976	2112
33.984	2139
33.992	2162
34	2177
34.008	2185
34.016	2189
34.024	2187
34.032	2178.99999999999
34.04	2165
34.048	2146
34.056	2126
34.064	2104
34.072	2079
34.08	2052
34.088	2025
34.096	1999.99999999998
34.104	1975
34.112	1954
34.12	1938
34.128	1925
34.136	1914
34.144	1905
34.152	1895
34.16	1885.99999999999
34.168	1880
34.176	1876
34.184	1874
34.192	1873
34.2	1871
34.208	1866
34.216	1860
34.224	1853.99999999999
34.232	1847
34.24	1841
34.248	1835
34.256	1828
34.264	1821
34.272	1815
34.28	1808
34.288	1799.99999999999
34.296	1791
34.304	1782
34.312	1774
34.32	1767
34.328	1760
34.336	1753
34.344	1747
34.352	1739.99999999999
34.36	1731
34.368	1724
34.376	1720
34.384	1716
34.392	1712
34.4	1710
34.408	1709
34.416	1709
34.424	1709
34.432	1709
34.44	1709
34.448	1709
34.456	1709
34.464	1708
34.472	1706
34.48	1703
34.488	1700
34.496	1696
34.504	1692
34.512	1690
34.52	1688
34.528	1686
34.536	1683
34.544	1680
34.552	1678
34.56	1677
34.568	1677
34.576	1677
34.584	1677
34.592	1667
34.6	1652
34.608	1640.99999999999
34.616	1633
34.624	1626
34.632	1619
34.64	1616
34.648	1614
34.656	1613
34.664	1616
34.672	1620
34.68	1625
34.688	1634
34.696	1646
34.704	1666
34.712	1693
34.72	1726
34.728	1768
34.736	1823.00000000005
34.744	1890
34.752	1963
34.76	2040
34.768	2115
34.776	2187
34.784	2254
34.792	2312
34.8	2358.00000000003
34.808	2390
34.816	2412
34.824	2426
34.832	2430
34.84	2426
34.848	2418
34.856	2408
34.864	2392
34.872	2367
34.88	2335
34.888	2297
34.896	2253
34.904	2202
34.912	2150
34.92	2105
34.928	2069
34.936	2039
34.944	2015
34.952	2000
34.96	1990
34.968	1980
34.976	1969
34.984	1958
34.992	1946
35	1934
35.008	1923
35.016	1916
35.024	1909
35.032	1899.99999999999
35.04	1892
35.048	1885
35.056	1876
35.064	1865
35.072	1857
35.08	1848
35.088	1835
35.096	1822.99999999999
35.104	1808
35.112	1792
35.12	1779
35.128	1767
35.136	1755
35.144	1743
35.152	1734
35.16	1729
35.168	1724
35.176	1718
35.184	1715
35.192	1712
35.2	1708
35.208	1706
35.216	1705
35.224	1705
35.232	1705
35.24	1705
35.248	1705
35.256	1705
35.264	1705
35.272	1705
35.28	1707
35.288	1710
35.296	1711
35.304	1712
35.312	1712
35.32	1712
35.328	1710
35.336	1707
35.344	1706
35.352	1705
35.36	1705
35.368	1705
35.376	1705
35.384	1708
35.392	1709
35.4	1708
35.408	1705
35.416	1705
35.424	1705
35.432	1705
35.44	1705
35.448	1705
35.456	1705
35.464	1707
35.472	1719
35.48	1742.00000000002
35.488	1773
35.496	1818
35.504	1874
35.512	1941
35.52	2017
35.528	2098
35.536	2186
35.544	2275.00000000008
35.552	2363
35.56	2447
35.568	2523
35.576	2592
35.584	2649
35.592	2695
35.6	2726
35.608	2741.00000000001
35.616	2749
35.624	2750
35.632	2742
35.64	2727
35.648	2706
35.656	2678
35.664	2644
35.672	2603.99999999996
35.68	2561
35.688	2515
35.696	2469
35.704	2429
35.712	2392
35.72	2359
35.728	2329
35.736	2301.99999999998
35.744	2280
35.752	2258
35.76	2238
35.768	2219
35.776	2199
35.784	2181
35.792	2163
35.8	2144.99999999998
35.808	2128
35.816	2108
35.824	2086
35.832	2067
35.84	2053
35.848	2040
35.856	2024
35.864	2007
35.872	1991
35.88	1975
35.888	1958
35.896	1940
35.904	1923
35.912	1907
35.92	1890
35.928	1872
35.936	1855
35.944	1839
35.952	1825
35.96	1809
35.968	1793
35.976	1780
35.984	1764
35.992	1747
36	1731
36.008	1715
36.016	1704
36.024	1695
36.032	1687.99999999999
36.04	1681
36.048	1672
36.056	1662
36.064	1652
36.072	1641
36.08	1630
36.088	1618
36.096	1608.99999999999
36.104	1602
36.112	1595
36.12	1590
36.128	1582
36.136	1572
36.144	1561
36.152	1550
36.16	1537.99999999999
36.168	1529
36.176	1523
36.184	1518
36.192	1515
36.2	1514
36.208	1513
36.216	1510
36.224	1501.99999999999
36.232	1495
36.24	1486
36.248	1475
36.256	1467
36.264	1458
36.272	1451
36.28	1450
36.288	1454
36.296	1462
36.304	1475
36.312	1493
36.32	1519
36.328	1555
36.336	1598
36.344	1647
36.352	1700.00000000005
36.36	1757
36.368	1820
36.376	1885
36.384	1952
36.392	2014
36.4	2065
36.408	2105
36.416	2134.00000000002
36.424	2151
36.432	2160
36.44	2161
36.448	2153
36.456	2135
36.464	2106
36.472	2071
36.48	2034.99999999997
36.488	1994
36.496	1947
36.504	1902
36.512	1859
36.52	1818
36.528	1780
36.536	1747
36.544	1722.99999999998
36.552	1705
36.56	1690
36.568	1679
36.576	1671
36.584	1662
36.592	1652
36.6	1644
36.608	1662.00000000002
36.616	1693
36.624	1709
36.632	1717
36.64	1721
36.648	1723
36.656	1724
36.664	1724
36.672	1724
36.68	1724
36.688	1722
36.696	1719
36.704	1716
36.712	1710
36.72	1703
36.728	1698
36.736	1693
36.744	1689
36.752	1687
36.76	1684
36.768	1680
36.776	1676
36.784	1672
36.792	1669
36.8	1665
36.808	1661
36.816	1657
36.824	1653
36.832	1649
36.84	1645
36.848	1641
36.856	1637
36.864	1633
36.872	1627
36.88	1620
36.888	1614
36.896	1609
36.904	1603
36.912	1598
36.92	1593
36.928	1589
36.936	1587
36.944	1586
36.952	1585
36.96	1585
36.968	1585
36.976	1585
36.984	1583
36.992	1580
37	1578
37.008	1575
37.016	1572
37.024	1570
37.032	1567
37.04	1564
37.048	1562
37.056	1561
37.064	1561
37.072	1561
37.08	1563
37.088	1566
37.096	1569
37.104	1575
37.112	1582
37.12	1593
37.128	1609
37.136	1629
37.144	1654
37.152	1683
37.16	1719.00000000003
37.168	1758
37.176	1798
37.184	1841
37.192	1887
37.2	1933
37.208	1977
37.216	2015
37.224	2045.00000000002
37.232	2069
37.24	2087
37.248	2098
37.256	2101
37.264	2099
37.272	2093
37.28	2081
37.288	2060.99999999998
37.296	2039
37.304	2016
37.312	1991
37.32	1968
37.328	1944
37.336	1920
37.344	1898
37.352	1879.99999999998
37.36	1864
37.368	1850
37.376	1837
37.384	1825
37.392	1815
37.4	1806
37.408	1797
37.416	1788.99999999999
37.424	1783
37.432	1780
37.44	1778
37.448	1777
37.456	1777
37.464	1777
37.472	1777
37.48	1776
37.488	1774
37.496	1773
37.504	1771
37.512	1768
37.52	1766
37.528	1763
37.536	1760
37.544	1756
37.552	1752
37.56	1750
37.568	1749
37.576	1747
37.584	1744
37.592	1742
37.6	1741
37.608	1739
37.616	1736
37.624	1732
37.632	1728
37.64	1726
37.648	1725
37.656	1723
37.664	1720
37.672	1718
37.68	1715
37.688	1712
37.696	1708
37.704	1704
37.712	1702
37.72	1701
37.728	1701
37.736	1701
37.744	1701
37.752	1701
37.76	1701
37.768	1701
37.776	1701
37.784	1703
37.792	1706
37.8	1707
37.808	1708
37.816	1708
37.824	1708
37.832	1708
37.84	1706
37.848	1703
37.856	1700
37.864	1696
37.872	1694
37.88	1693
37.888	1693
37.896	1695
37.904	1700
37.912	1706
37.92	1713
37.928	1723
37.936	1736
37.944	1751
37.952	1770
37.96	1793
37.968	1822
37.976	1857
37.984	1901
37.992	1948
38	1994
38.008	2040
38.016	2084
38.024	2126
38.032	2164.00000000003
38.04	2196
38.048	2222
38.056	2239
38.064	2248
38.072	2252
38.08	2254
38.088	2251
38.096	2241.99999999999
38.104	2227
38.112	2207
38.12	2184
38.128	2158
38.136	2129
38.144	2102
38.152	2077
38.16	2052.99999999998
38.168	2033
38.176	2017
38.184	2003
38.192	1991
38.2	1980
38.208	1970
38.216	1959
38.224	1947.99999999999
38.232	1940
38.24	1934
38.248	1927
38.256	1922
38.264	1917
38.272	1911
38.28	1904
38.288	1895.99999999999
38.296	1888
38.304	1878
38.312	1868
38.32	1858
38.328	1845
38.336	1833
38.344	1821
38.352	1806.99999999999
38.36	1794
38.368	1784
38.376	1778
38.384	1775
38.392	1774
38.4	1773
38.408	1773
38.416	1773
38.424	1773
38.432	1773
38.44	1771
38.448	1768
38.456	1764
38.464	1760
38.472	1758
38.48	1757
38.488	1757
38.496	1757
38.504	1757
38.512	1755
38.52	1752
38.528	1750
38.536	1747
38.544	1744
38.552	1742
38.56	1741
38.568	1741
38.576	1741
38.584	1743
38.592	1746
38.6	1747
38.608	1748
38.616	1748
38.624	1748
38.632	1748
38.64	1748
38.648	1748
38.656	1771
38.664	1803
38.672	1816.00000000001
38.68	1822
38.688	1828
38.696	1834
38.704	1837
38.712	1841
38.72	1845
38.728	1850
38.736	1857.00000000001
38.744	1866
38.752	1875
38.76	1889
38.768	1911
38.776	1940
38.784	1979
38.792	2029
38.8	2089.00000000006
38.808	2154
38.816	2218
38.824	2282
38.832	2344
38.84	2402
38.848	2451
38.856	2489
38.864	2515.00000000002
38.872	2533
38.88	2545
38.888	2548
38.896	2541
38.904	2528
38.912	2511
38.92	2491
38.928	2466
38.936	2433
38.944	2395
38.952	2356
38.96	2316
38.968	2276
38.976	2239
38.984	2206
38.992	2179
39	2159
39.008	2139
39.016	2121
39.024	2104
39.032	2087.99999999999
39.04	2075
39.048	2064
39.056	2053
39.064	2043
39.072	2036
39.08	2029
39.088	2021
39.096	2011.99999999999
39.104	2002
39.112	1990
39.12	1974
39.128	1958
39.136	1942
39.144	1927
39.152	1915
39.16	1903.99999999999
39.168	1894
39.176	1887
39.184	1884
39.192	1879
39.2	1874
39.208	1869
39.216	1865
39.224	1859.99999999999
39.232	1852
39.24	1843
39.248	1836
39.256	1830
39.264	1825
39.272	1823
39.28	1822
39.288	1821
39.296	1821
39.304	1821
39.312	1821
39.32	1821
39.328	1818
39.336	1813
39.344	1809
39.352	1805
39.36	1803
39.368	1804
39.376	1806
39.384	1807
39.392	1811
39.4	1816
39.408	1818
39.416	1819
39.424	1820
39.432	1822
39.44	1825
39.448	1830
39.456	1837
39.464	1846
39.472	1855
39.48	1865.00000000001
39.488	1873
39.496	1877
39.504	1879
39.512	1880
39.52	1880
39.528	1880
39.536	1882
39.544	1887.00000000001
39.552	1897
39.56	1912
39.568	1934
39.576	1965
39.584	2004
39.592	2053
39.6	2110
39.608	2173.00000000006
39.616	2245
39.624	2323
39.632	2402
39.64	2476
39.648	2548
39.656	2614
39.664	2672
39.672	2723.00000000004
39.68	2761
39.688	2785
39.696	2797
39.704	2801
39.712	2800
39.72	2789
39.728	2770
39.736	2744.99999999998
39.744	2715
39.752	2680
39.76	2642
39.768	2601
39.776	2559
39.784	2520
39.792	2485
39.8	2452.99999999997
39.808	2424
39.816	2397
39.824	2372
39.832	2351
39.84	2334
39.848	2318
39.856	2305
39.864	2293.99999999999
39.872	2280
39.88	2266
39.888	2254
39.896	2243
39.904	2233
39.912	2220
39.92	2206
39.928	2196.99999999999
39.936	2190
39.944	2183
39.952	2180
39.96	2178
39.968	2180
39.976	2184
39.984	2186
39.992	2184
40	2180
40.008	2176
40.016	2169
40.024	2161
40.032	2155
40.04	2152
40.048	2147
40.056	2142
40.064	2137
40.072	2133
40.08	2128
40.088	2120
40.096	2110.99999999999
40.104	2102
40.112	2090
40.12	2076
40.128	2061
40.136	2047
40.144	2035
40.152	2024
40.16	2012.99999999999
40.168	2003
40.176	1993
40.184	1983
40.192	1973
40.2	1963
40.208	1951
40.216	1937
40.224	1924.99999999999
40.232	1914
40.24	1903
40.248	1894
40.256	1887
40.264	1884
40.272	1882
40.28	1881
40.288	1881
40.296	1878
40.304	1873
40.312	1871
40.32	1870
40.328	1869
40.336	1869
40.344	1869
40.352	1869
40.36	1872
40.368	1876
40.376	1880
40.384	1886
40.392	1896
40.4	1914
40.408	1938
40.416	1970.00000000003
40.424	2011
40.432	2059
40.44	2111
40.448	2165
40.456	2219
40.464	2270
40.472	2320
40.48	2368.00000000004
40.488	2407
40.496	2437
40.504	2459
40.512	2475
40.52	2483
40.528	2479
40.536	2467
40.544	2448.99999999998
40.552	2423
40.56	2390
40.568	2353
40.576	2313
40.584	2268
40.592	2222
40.6	2182
40.608	2146.99999999997
40.616	2115
40.624	2084
40.632	2055
40.64	2031
40.648	2009
40.656	1991
40.664	1975
40.672	1958.99999999999
40.68	1946
40.688	1934
40.696	1920
40.704	1854
40.712	1765
40.72	1719
40.728	1694
40.736	1678.99999999999
40.744	1669
40.752	1661
40.76	1655
40.768	1648
40.776	1640
40.784	1632
40.792	1623
40.8	1613.99999999999
40.808	1605
40.816	1597
40.824	1589
40.832	1580
40.84	1570
40.848	1563
40.856	1558
40.864	1550.99999999999
40.872	1544
40.88	1535
40.888	1528
40.896	1524
40.904	1520
40.912	1516
40.92	1514
40.928	1513
40.936	1513
40.944	1511
40.952	1506
40.96	1501
40.968	1497
40.976	1490
40.984	1481
40.992	1475
41	1472
41.008	1470
41.016	1469
41.024	1469
41.032	1469
41.04	1469
41.048	1469
41.056	1469
41.064	1469
41.072	1469
41.08	1469
41.088	1467
41.096	1464
41.104	1460
41.112	1454
41.12	1449
41.128	1444
41.136	1438
41.144	1433
41.152	1429
41.16	1427
41.168	1428
41.176	1430
41.184	1434
41.192	1439
41.2	1444
41.208	1452
41.216	1465
41.224	1481.00000000002
41.232	1502
41.24	1532
41.248	1569
41.256	1610
41.264	1651
41.272	1696
41.28	1743
41.288	1791.00000000004
41.296	1837
41.304	1877
41.312	1912
41.32	1938
41.328	1955
41.336	1969
41.344	1976
41.352	1974
41.36	1967
41.368	1955
41.376	1938
41.384	1916
41.392	1894
41.4	1872
41.408	1848
41.416	1824.99999999998
41.424	1805
41.432	1786
41.44	1767
41.448	1750
41.456	1732
41.464	1714
41.472	1699
41.48	1687.99999999999
41.488	1680
41.496	1676
41.504	1674
41.512	1673
41.52	1673
41.528	1673
41.536	1673
41.544	1673
41.552	1673
41.56	1673
41.568	1673
41.576	1673
41.584	1673
41.592	1673
41.6	1671
41.608	1668
41.616	1663
41.624	1658
41.632	1655
41.64	1652
41.648	1648
41.656	1646
41.664	1645
41.672	1645
41.68	1643
41.688	1640
41.696	1638
41.704	1635
41.712	1632
41.72	1630
41.728	1629
41.736	1629
41.744	1629
41.752	1629
41.76	1627
41.768	1624
41.776	1622
41.784	1621
41.792	1621
41.8	1621
41.808	1621
41.816	1621
41.824	1621
41.832	1621
41.84	1621
41.848	1621
41.856	1621
41.864	1621
41.872	1621
41.88	1621
41.888	1621
41.896	1621
41.904	1623
41.912	1626
41.92	1627
41.928	1628
41.936	1628
41.944	1628
41.952	1630
41.96	1633
41.968	1635
41.976	1638
41.984	1641
41.992	1645
42	1649
42.008	1654
42.016	1661
42.024	1669
42.032	1677.00000000001
42.04	1689
42.048	1710
42.056	1738
42.064	1772
42.072	1813
42.08	1860
42.088	1910
42.096	1962.00000000005
42.104	2012
42.112	2059
42.12	2100
42.128	2133
42.136	2161
42.144	2181
42.152	2193
42.16	2197
42.168	2195
42.176	2188
42.184	2175
42.192	2158
42.2	2134
42.208	2104
42.216	2071
42.224	2039.99999999997
42.232	2009
42.24	1981
42.248	1956
42.256	1934
42.264	1916
42.272	1900
42.28	1886
42.288	1872.99999999999
42.296	1865
42.304	1858
42.312	1849
42.32	1843
42.328	1840
42.336	1836
42.344	1832
42.352	1828
42.36	1822
42.368	1814
42.376	1805
42.384	1797
42.392	1787
42.4	1775
42.408	1764
42.416	1753.99999999999
42.424	1745
42.432	1737
42.44	1728
42.448	1716
42.456	1704
42.464	1694
42.472	1685
42.48	1679
42.488	1676
42.496	1674
42.504	1673
42.512	1673
42.52	1671
42.528	1668
42.536	1666
42.544	1662
42.552	1657
42.56	1655
42.568	1652
42.576	1648
42.584	1646
42.592	1643
42.6	1640
42.608	1636
42.616	1632
42.624	1630
42.632	1629
42.64	1629
42.648	1629
42.656	1629
42.664	1629
42.672	1629
42.68	1629
42.688	1629
42.696	1629
42.704	1631
42.712	1634
42.72	1635
42.728	1636
42.736	1636
42.744	1636
42.752	1687
42.76	1762
42.768	1797
42.776	1817
42.784	1829
42.792	1835
42.8	1841.00000000001
42.808	1849
42.816	1860
42.824	1870
42.832	1878
42.84	1890
42.848	1906
42.856	1929
42.864	1961.00000000003
42.872	2002
42.88	2052
42.888	2107
42.896	2168
42.904	2231
42.912	2293
42.92	2354
42.928	2409.00000000004
42.936	2455
42.944	2491
42.952	2519
42.96	2538
42.968	2547
42.976	2549
42.984	2545
42.992	2532.99999999999
43	2514
43.008	2492
43.016	2464
43.024	2430
43.032	2392.99999999997
43.04	2352
43.048	2308
43.056	2268
43.064	2233
43.072	2204
43.08	2179
43.088	2157
43.096	2135.99999999998
43.104	2115
43.112	2097
43.12	2080
43.128	2066
43.136	2057
43.144	2048
43.152	2037
43.16	2026.99999999999
43.168	2017
43.176	2007
43.184	1997
43.192	1987
43.2	1977
43.208	1967
43.216	1957
43.224	1943.99999999999
43.232	1930
43.24	1916
43.248	1901
43.256	1889
43.264	1878
43.272	1869
43.28	1863
43.288	1858
43.296	1852
43.304	1844
43.312	1838
43.32	1832
43.328	1826
43.336	1821
43.344	1817
43.352	1812
43.36	1806
43.368	1801
43.376	1794
43.384	1785
43.392	1776
43.4	1766
43.408	1759
43.416	1756
43.424	1754
43.432	1753
43.44	1753
43.448	1753
43.456	1750
43.464	1745
43.472	1741
43.48	1733.99999999999
43.488	1725
43.496	1719
43.504	1716
43.512	1714
43.52	1713
43.528	1713
43.536	1713
43.544	1713
43.552	1715
43.56	1718
43.568	1719
43.576	1720
43.584	1720
43.592	1720
43.6	1720
43.608	1720
43.616	1720
43.624	1720
43.632	1725
43.64	1736
43.648	1751
43.656	1776
43.664	1808
43.672	1847.00000000004
43.68	1895
43.688	1952
43.696	2015
43.704	2084
43.712	2158
43.72	2236
43.728	2313
43.736	2387.00000000006
43.744	2457
43.752	2519
43.76	2573
43.768	2616
43.776	2644
43.784	2660
43.792	2666
43.8	2661.99999999999
43.808	2649
43.816	2630
43.824	2605
43.832	2578
43.84	2549
43.848	2520
43.856	2488
43.864	2453.99999999997
43.872	2419
43.88	2385
43.888	2353
43.896	2321
43.904	2292
43.912	2265
43.92	2240
43.928	2218.99999999998
43.936	2204
43.944	2194
43.952	2189
43.96	2187
43.968	2186
43.976	2182
43.984	2172
43.992	2159.99999999999
44	2149
44.008	2139
44.016	2129
44.024	2119
44.032	2108.99999999999
44.04	2101
44.048	2095
44.056	2090
44.064	2084
44.072	2078
44.08	2073
44.088	2066
44.096	2056.99999999999
44.104	2048
44.112	2037
44.12	2027
44.128	2017
44.136	2007
44.144	2000
44.152	1993
44.16	1987
44.168	1982
44.176	1974
44.184	1965
44.192	1956
44.2	1943
44.208	1932
44.216	1924
44.224	1918
44.232	1915
44.24	1911
44.248	1906
44.256	1903
44.264	1900
44.272	1896
44.28	1891
44.288	1886
44.296	1883
44.304	1882
44.312	1881
44.32	1881
44.328	1881
44.336	1881
44.344	1881
44.352	1881
44.36	1881
44.368	1881
44.376	1881
44.384	1881
44.392	1881
44.4	1881
44.408	1881
44.416	1881
44.424	1881
44.432	1881
44.44	1881
44.448	1881
44.456	1884
44.464	1893
44.472	1910
44.48	1933.00000000002
44.488	1965
44.496	2006
44.504	2057
44.512	2116
44.52	2177
44.528	2243
44.536	2314
44.544	2387.00000000006
44.552	2457
44.56	2519
44.568	2570
44.576	2611
44.584	2642
44.592	2662
44.6	2672
44.608	2669
44.616	2658
44.624	2639
44.632	2612
44.64	2578
44.648	2541
44.656	2503
44.664	2462
44.672	2415.99999999996
44.68	2370
44.688	2324
44.696	2278
44.704	2238
44.712	2206
44.72	2180
44.728	2157
44.736	2135.99999999998
44.744	2115
44.752	2095
44.76	2075
44.768	2057
44.776	2040
44.784	2021
44.792	2004
44.8	1954.99999999995
44.808	1891
44.816	1852
44.824	1823
44.832	1800
44.84	1781
44.848	1767
44.856	1754
44.864	1739.99999999999
44.872	1728
44.88	1718
44.888	1708
44.896	1696
44.904	1683
44.912	1670
44.92	1656
44.928	1643.99999999999
44.936	1634
44.944	1625
44.952	1616
44.96	1606
44.968	1597
44.976	1588
44.984	1578
44.992	1568.99999999999
45	1563
45.008	1557
45.016	1549
45.024	1541
45.032	1531.99999999999
45.04	1522
45.048	1513
45.056	1505
45.064	1496
45.072	1486
45.08	1479
45.088	1476
45.096	1474
45.104	1473
45.112	1473
45.12	1473
45.128	1473
45.136	1473
45.144	1473
45.152	1473
45.16	1473
45.168	1473
45.176	1473
45.184	1473
45.192	1473
45.2	1473
45.208	1473
45.216	1473
45.224	1473
45.232	1473
45.24	1473
45.248	1473
45.256	1473
45.264	1473
45.272	1475
45.28	1478
45.288	1482
45.296	1489
45.304	1499
45.312	1518
45.32	1546
45.328	1580
45.336	1622
45.344	1673
45.352	1729.00000000005
45.36	1783
45.368	1836
45.376	1887
45.384	1933
45.392	1975
45.4	2008
45.408	2030
45.416	2045.00000000001
45.424	2051
45.432	2050
45.44	2045
45.448	2036
45.456	2021
45.464	2005
45.472	1986
45.48	1961.99999999998
45.488	1936
45.496	1909
45.504	1882
45.512	1856
45.52	1831
45.528	1808
45.536	1783
45.544	1770.99999999999
45.552	1763
45.56	1758
45.568	1757
45.576	1757
45.584	1757
45.592	1757
45.6	1756
45.608	1752
45.616	1750
45.624	1749
45.632	1751
45.64	1754
45.648	1755
45.656	1756
45.664	1756
45.672	1756
45.68	1754
45.688	1751
45.696	1748
45.704	1744
45.712	1740
45.72	1736
45.728	1731
45.736	1723
45.744	1719
45.752	1716
45.76	1714
45.768	1711
45.776	1708
45.784	1703
45.792	1698
45.8	1693
45.808	1687
45.816	1679
45.824	1672
45.832	1666
45.84	1659
45.848	1654
45.856	1651
45.864	1650
45.872	1646
45.88	1641
45.888	1637
45.896	1631
45.904	1626
45.912	1621
45.92	1617
45.928	1615
45.936	1616
45.944	1618
45.952	1621
45.96	1625
45.968	1627
45.976	1628
45.984	1628
45.992	1628
46	1628
46.008	1626
46.016	1625
46.024	1627
46.032	1630
46.04	1633
46.048	1638
46.056	1645.00000000001
46.064	1653
46.072	1662
46.08	1676
46.088	1697
46.096	1721.00000000002
46.104	1748
46.112	1782
46.12	1823
46.128	1872
46.136	1926
46.144	1980
46.152	2034
46.16	2087.00000000004
46.168	2135
46.176	2175
46.184	2209
46.192	2238
46.2	2259
46.208	2272
46.216	2276
46.224	2273
46.232	2267
46.24	2255
46.248	2235
46.256	2211
46.264	2181
46.272	2145
46.28	2108
46.288	2075.99999999997
46.296	2051
46.304	2029
46.312	2011
46.32	1998
46.328	1986
46.336	1975
46.344	1966
46.352	1955.99999999999
46.36	1946
46.368	1939
46.376	1934
46.384	1927
46.392	1919
46.4	1912
46.408	1906
46.416	1901
46.424	1897
46.432	1893
46.44	1888
46.448	1878
46.456	1866
46.464	1855
46.472	1846
46.48	1835.99999999999
46.488	1826
46.496	1817
46.504	1808
46.512	1798
46.52	1789
46.528	1781
46.536	1772
46.544	1764
46.552	1760
46.56	1758
46.568	1757
46.576	1757
46.584	1757
46.592	1757
46.6	1757
46.608	1757
46.616	1757
46.624	1755
46.632	1752
46.64	1750
46.648	1749
46.656	1749
46.664	1749
46.672	1749
46.68	1749
46.688	1749
46.696	1749
46.704	1749
46.712	1749
46.72	1749
46.728	1749
46.736	1749
46.744	1749
46.752	1749
46.76	1749
46.768	1749
46.776	1749
46.784	1749
46.792	1749
46.8	1749
46.808	1747
46.816	1783
46.824	1840
46.832	1868
46.84	1882
46.848	1891
46.856	1898
46.864	1904.00000000001
46.872	1910
46.88	1915
46.888	1920
46.896	1927
46.904	1944
46.912	1970
46.92	2006
46.928	2055.00000000005
46.936	2116
46.944	2179
46.952	2244
46.96	2309
46.968	2372
46.976	2431
46.984	2484
46.992	2528.00000000004
47	2565
47.008	2594
47.016	2613
47.024	2625
47.032	2629
47.04	2624
47.048	2608
47.056	2584.99999999998
47.064	2559
47.072	2528
47.08	2494
47.088	2459
47.096	2423.99999999997
47.104	2388
47.112	2355
47.12	2326
47.128	2298
47.136	2272
47.144	2249
47.152	2233
47.16	2219.99999999999
47.168	2207
47.176	2198
47.184	2191
47.192	2186
47.2	2180
47.208	2174
47.216	2169
47.224	2165
47.232	2160
47.24	2152
47.248	2143
47.256	2134
47.264	2124
47.272	2114
47.28	2104
47.288	2090.99999999999
47.296	2077
47.304	2065
47.312	2054
47.32	2043
47.328	2033
47.336	2023
47.344	2013
47.352	2002.99999999999
47.36	1993
47.368	1982
47.376	1971
47.384	1964
47.392	1957
47.4	1946
47.408	1933
47.416	1921.99999999999
47.424	1913
47.432	1907
47.44	1902
47.448	1899
47.456	1898
47.464	1897
47.472	1897
47.48	1897
47.488	1899
47.496	1902
47.504	1903
47.512	1904
47.52	1904
47.528	1904
47.536	1902
47.544	1899
47.552	1898
47.56	1897
47.568	1897
47.576	1897
47.584	1897
47.592	1897
47.6	1899
47.608	1902
47.616	1903
47.624	1904
47.632	1904
47.64	1904
47.648	1904
47.656	1902
47.664	1899
47.672	1898
47.68	1899
47.688	1905
47.696	1913
47.704	1922
47.712	1936
47.72	1958
47.728	1987
47.736	2028.00000000004
47.744	2079
47.752	2138
47.76	2202
47.768	2269
47.776	2339
47.784	2407
47.792	2472
47.8	2532.00000000005
47.808	2585
47.816	2630
47.824	2664
47.832	2689
47.84	2702
47.848	2703
47.856	2697
47.864	2677.99999999998
47.872	2650
47.88	2619
47.888	2586
47.896	2551
47.904	2516
47.912	2483
47.92	2452
47.928	2419.99999999997
47.936	2389
47.944	2359
47.952	2328
47.96	2299
47.968	2275
47.976	2256
47.984	2244
47.992	2238
48	2235
48.008	2234
48.016	2233
48.024	2233
48.032	2233
48.04	2233
48.048	2233
48.056	2230
48.064	2225
48.072	2223
48.08	2220
48.088	2216
48.096	2214
48.104	2210
48.112	2205
48.12	2203
48.128	2202
48.136	2201
48.144	2198
48.152	2193
48.16	2191
48.168	2188
48.176	2181
48.184	2175
48.192	2170
48.2	2165
48.208	2163
48.216	2162
48.224	2161
48.232	2161
48.24	2161
48.248	2161
48.256	2158
48.264	2153
48.272	2149
48.28	2145
48.288	2139.99999999999
48.296	2132
48.304	2126
48.312	2120
48.32	2114
48.328	2111
48.336	2110
48.344	2109
48.352	2109
48.36	2109
48.368	2109
48.376	2109
48.384	2109
48.392	2109
48.4	2109
48.408	2112
48.416	2116
48.424	2118
48.432	2121
48.44	2125
48.448	2127
48.456	2128
48.464	2128
48.472	2128
48.48	2131
48.488	2138
48.496	2146
48.504	2158
48.512	2177
48.52	2200
48.528	2226
48.536	2262
48.544	2308.00000000005
48.552	2364
48.56	2430
48.568	2501
48.576	2575
48.584	2653
48.592	2733
48.6	2808
48.608	2873.00000000006
48.616	2932
48.624	2981
48.632	3018
48.64	3044
48.648	3057
48.656	3059
48.664	3050
48.672	3029.99999999998
48.68	3002
48.688	2967
48.696	2927
48.704	2884
48.712	2840
48.72	2793
48.728	2747
48.736	2700.99999999996
48.744	2652
48.752	2607
48.76	2570
48.768	2535
48.776	2505
48.784	2480
48.792	2457
48.8	2435.99999999998
48.808	2415
48.816	2395
48.824	2377
48.832	2360
48.84	2341
48.848	2324
48.856	2307
48.864	2192.99999999988
48.872	2032
48.88	1946
48.888	1897
48.896	1867
48.904	1846
48.912	1829
48.92	1815
48.928	1799.99999999999
48.936	1784
48.944	1769
48.952	1757
48.96	1745
48.968	1731
48.976	1718
48.984	1705
48.992	1690.99999999999
49	1678
49.008	1665
49.016	1652
49.024	1638
49.032	1626.99999999999
49.04	1620
49.048	1612
49.056	1603.99999999999
49.064	1596
49.072	1590
49.08	1585
49.088	1581
49.096	1577
49.104	1573
49.112	1569
49.12	1565
49.128	1562
49.136	1557
49.144	1551
49.152	1544
49.16	1535.99999999999
49.168	1528
49.176	1522
49.184	1519
49.192	1518
49.2	1515
49.208	1512
49.216	1510
49.224	1509
49.232	1509
49.24	1509
49.248	1507
49.256	1502
49.264	1497
49.272	1493
49.28	1489
49.288	1487
49.296	1486
49.304	1485
49.312	1487
49.32	1490
49.328	1493
49.336	1499
49.344	1508
49.352	1520.00000000001
49.36	1537
49.368	1561
49.376	1591
49.384	1625
49.392	1663
49.4	1705
49.408	1749
49.416	1793.00000000004
49.424	1832
49.432	1864
49.44	1892
49.448	1918
49.456	1941
49.464	1960
49.472	1972
49.48	1978
49.488	1978
49.496	1971
49.504	1958
49.512	1937
49.52	1911
49.528	1885
49.536	1861
49.544	1836.99999999998
49.552	1813
49.56	1791
49.568	1771
49.576	1752
49.584	1734
49.592	1717
49.6	1703
49.608	1691.99999999999
49.616	1682
49.624	1673
49.632	1665
49.64	1657
49.648	1650
49.656	1641
49.664	1631
49.672	1624
49.68	1620
49.688	1618
49.696	1617
49.704	1617
49.712	1615
49.72	1612
49.728	1608
49.736	1604
49.744	1602
49.752	1599
49.76	1596
49.768	1594
49.776	1591
49.784	1588
49.792	1584
49.8	1580
49.808	1578
49.816	1577
49.824	1577
49.832	1577
49.84	1575
49.848	1572
49.856	1570
49.864	1567
49.872	1564
49.88	1562
49.888	1560
49.896	1558
49.904	1558
49.912	1559
49.92	1560
49.928	1560
49.936	1560
49.944	1560
49.952	1559
49.96	1558
49.968	1557
49.976	1557
49.984	1557
49.992	1557
50	1558
50.008	1559
50.016	1559
50.024	1558
50.032	1557
50.04	1557
50.048	1557
50.056	1558
50.064	1559
50.072	1560
50.08	1560
50.088	1559
50.096	1558
50.104	1557
50.112	1557
50.12	1557
50.128	1558
50.136	1561
50.144	1567
50.152	1574
50.16	1583.00000000001
50.168	1596
50.176	1612
50.184	1631
50.192	1656
50.2	1690
50.208	1732
50.216	1780
50.224	1829.00000000004
50.232	1875
50.24	1918
50.248	1958
50.256	1993
50.264	2023
50.272	2048
50.28	2066
50.288	2078.00000000001
50.296	2085
50.304	2088
50.312	2084
50.32	2074
50.328	2059
50.336	2040
50.344	2018
50.352	1993.99999999998
50.36	1967
50.368	1938
50.376	1909
50.384	1886
50.392	1867
50.4	1852
50.408	1840
50.416	1831.99999999999
50.424	1826
50.432	1819
50.44	1812
50.448	1804
50.456	1796
50.464	1788
50.472	1780
50.48	1771.99999999999
50.488	1766
50.496	1762
50.504	1757
50.512	1751
50.52	1742
50.528	1731
50.536	1722
50.544	1712.99999999999
50.552	1703
50.56	1692
50.568	1682
50.576	1673
50.584	1663
50.592	1653
50.6	1645
50.608	1634.99999999999
50.616	1626
50.624	1619
50.632	1614
50.64	1611
50.648	1610
50.656	1609
50.664	1609
50.672	1609
50.68	1609
50.688	1609
50.696	1607
50.704	1604
50.712	1602
50.72	1599
50.728	1596
50.736	1592
50.744	1588
50.752	1584
50.76	1580
50.768	1578
50.776	1577
50.784	1577
50.792	1577
50.8	1577
50.808	1579
50.816	1582
50.824	1583
50.832	1584
50.84	1584
50.848	1584
50.856	1584
50.864	1584
50.872	1584
50.88	1586
50.888	1589
50.896	1591
50.904	1592
50.912	1634
50.92	1700
50.928	1736.00000000002
50.936	1756
50.944	1768
50.952	1777
50.96	1785
50.968	1792
50.976	1801
50.984	1817
50.992	1842.00000000003
51	1877
51.008	1926
51.016	1987
51.024	2052
51.032	2118.00000000006
51.04	2188
51.048	2254
51.056	2315.00000000005
51.064	2374
51.072	2426
51.08	2469
51.088	2502
51.096	2524.00000000002
51.104	2538
51.112	2542
51.12	2534.99999999999
51.128	2521
51.136	2500
51.144	2469
51.152	2432
51.16	2389.99999999996
51.168	2346
51.176	2304
51.184	2262.99999999996
51.192	2224
51.2	2190
51.208	2161
51.216	2138
51.224	2120.99999999999
51.232	2105
51.24	2088
51.248	2073
51.256	2063
51.264	2055
51.272	2048
51.28	2042
51.288	2037
51.296	2035
51.304	2031
51.312	2026
51.32	2020
51.328	2014
51.336	2008
51.344	1999
51.352	1988.99999999999
51.36	1979
51.368	1969
51.376	1955
51.384	1939
51.392	1925
51.4	1913
51.408	1902
51.416	1889.99999999999
51.424	1878
51.432	1863
51.44	1848
51.448	1832
51.456	1815
51.464	1804
51.472	1798
51.48	1791.99999999999
51.488	1786
51.496	1781
51.504	1777
51.512	1772
51.52	1766
51.528	1760
51.536	1754
51.544	1747.99999999999
51.552	1742
51.56	1739
51.568	1738
51.576	1734
51.584	1729
51.592	1727
51.6	1726
51.608	1725
51.616	1725
51.624	1725
51.632	1725
51.64	1725
51.648	1725
51.656	1725
51.664	1725
51.672	1725
51.68	1725
51.688	1725
51.696	1725
51.704	1725
51.712	1725
51.72	1725
51.728	1725
51.736	1725
51.744	1725
51.752	1728
51.76	1735
51.768	1745
51.776	1758
51.784	1772
51.792	1788
51.8	1807.00000000002
51.808	1831
51.816	1863
51.824	1907
51.832	1966
51.84	2035
51.848	2110
51.856	2187
51.864	2263.00000000007
51.872	2335
51.88	2399
51.888	2450
51.896	2486
51.904	2510
51.912	2525
51.92	2533
51.928	2534
51.936	2526
51.944	2514
51.952	2499
51.96	2478
51.968	2447
51.976	2412
51.984	2372
51.992	2325.99999999996
52	2280
52.008	2232
52.016	2185
52.024	2148
52.032	2120.99999999998
52.04	2102
52.048	2086
52.056	2074.99999999999
52.064	2070
52.072	2067
52.08	2063
52.088	2055
52.096	2047.99999999999
52.104	2042
52.112	2037
52.12	2032
52.128	2026
52.136	2020
52.144	2011
52.152	2004
52.16	1996.99999999999
52.168	1988
52.176	1980
52.184	1974
52.192	1969
52.2	1964
52.208	1955
52.216	1945
52.224	1930.99999999999
52.232	1916
52.24	1903
52.248	1891
52.256	1882
52.264	1877
52.272	1875
52.28	1877
52.288	1881
52.296	1883
52.304	1884
52.312	1881
52.32	1874
52.328	1864
52.336	1853
52.344	1845
52.352	1839
52.36	1834
52.368	1831
52.376	1830
52.384	1829
52.392	1831
52.4	1832
52.408	1830
52.416	1829
52.424	1826
52.432	1818
52.44	1808
52.448	1800
52.456	1796
52.464	1794
52.472	1793
52.48	1793
52.488	1796
52.496	1800
52.504	1805
52.512	1811
52.52	1814
52.528	1815
52.536	1816
52.544	1813
52.552	1806
52.56	1799
52.568	1796
52.576	1797
52.584	1804
52.592	1815
52.6	1835
52.608	1868.00000000003
52.616	1912
52.624	1968
52.632	2036
52.64	2110
52.648	2189
52.656	2277
52.664	2370
52.672	2458.00000000008
52.68	2541
52.688	2623
52.696	2698
52.704	2761
52.712	2813
52.72	2850
52.728	2874
52.736	2886
52.744	2883
52.752	2871
52.76	2851
52.768	2824
52.776	2793
52.784	2758
52.792	2717
52.8	2676.99999999996
52.808	2638
52.816	2595
52.824	2554
52.832	2516
52.84	2483
52.848	2456
52.856	2430
52.864	2405.99999999998
52.872	2386
52.88	2370
52.888	2356
52.896	2343
52.904	2331
52.912	2320
52.92	2309
52.928	2297.99999999999
52.936	2286
52.944	2274
52.952	2260
52.96	2181
52.968	2071
52.976	2008
52.984	1968
52.992	1940.99999999998
53	1923
53.008	1910
53.016	1899
53.024	1890
53.032	1880.99999999999
53.04	1872
53.048	1862
53.056	1852.99999999999
53.064	1845
53.072	1835
53.08	1824
53.088	1816
53.096	1808.99999999999
53.104	1803
53.112	1798
53.12	1790.99999999999
53.128	1786
53.136	1781
53.144	1775
53.152	1768
53.16	1758.99999999999
53.168	1748
53.176	1736
53.184	1725.99999999999
53.192	1717
53.2	1709
53.208	1698
53.216	1685
53.224	1674.99999999999
53.232	1666
53.24	1659
53.248	1654
53.256	1649
53.264	1645
53.272	1641
53.28	1637
53.288	1633
53.296	1631
53.304	1627
53.312	1622
53.32	1617
53.328	1611
53.336	1606
53.344	1601
53.352	1597
53.36	1593
53.368	1589
53.376	1587
53.384	1586
53.392	1585
53.4	1585
53.408	1587
53.416	1590
53.424	1595
53.432	1607
53.44	1624
53.448	1644
53.456	1671
53.464	1707
53.472	1749
53.48	1796.00000000004
53.488	1845
53.496	1893
53.504	1938
53.512	1980
53.52	2016
53.528	2047
53.536	2074
53.544	2091.00000000001
53.552	2100
53.56	2104
53.568	2102
53.576	2092
53.584	2078
53.592	2061
53.6	2038
53.608	2007.99999999997
53.616	1974
53.624	1940
53.632	1907
53.64	1876
53.648	1848
53.656	1821
53.664	1797
53.672	1775.99999999998
53.68	1758
53.688	1745
53.696	1735
53.704	1726
53.712	1717
53.72	1709
53.728	1700
53.736	1689.99999999999
53.744	1681
53.752	1673
53.76	1665
53.768	1659
53.776	1656
53.784	1654
53.792	1653
53.8	1651
53.808	1648
53.816	1646
53.824	1645
53.832	1645
53.84	1643
53.848	1640
53.856	1636
53.864	1632
53.872	1630
53.88	1626
53.888	1621
53.896	1619
53.904	1618
53.912	1617
53.92	1617
53.928	1617
53.936	1617
53.944	1615
53.952	1612
53.96	1610
53.968	1607
53.976	1604
53.984	1602
53.992	1599
54	1596
54.008	1592
54.016	1588
54.024	1586
54.032	1585
54.04	1585
54.048	1585
54.056	1585
54.064	1585
54.072	1585
54.08	1585
54.088	1585
54.096	1585
54.104	1585
54.112	1587
54.12	1590
54.128	1593
54.136	1597
54.144	1601
54.152	1605
54.16	1607
54.168	1608
54.176	1608
54.184	1608
54.192	1610
54.2	1613
54.208	1618
54.216	1625
54.224	1633.00000000001
54.232	1641
54.24	1649
54.248	1659.00000000001
54.256	1673
54.264	1691
54.272	1715
54.28	1749
54.288	1789.00000000004
54.296	1834
54.304	1882
54.312	1930
54.32	1978
54.328	2021
54.336	2060
54.344	2095
54.352	2124.00000000002
54.36	2144
54.368	2158
54.376	2167
54.384	2170
54.392	2165
54.4	2152
54.408	2132
54.416	2106.99999999998
54.424	2078
54.432	2046
54.44	2012
54.448	1980
54.456	1954
54.464	1932
54.472	1912
54.48	1893.99999999998
54.488	1878
54.496	1863
54.504	1850
54.512	1841
54.52	1835
54.528	1830
54.536	1825
54.544	1821
54.552	1819
54.56	1816
54.568	1812
54.576	1810
54.584	1806
54.592	1801
54.6	1797
54.608	1790.99999999999
54.616	1784
54.624	1776
54.632	1768
54.64	1757
54.648	1745
54.656	1735
54.664	1728
54.672	1721.99999999999
54.68	1715
54.688	1708
54.696	1699
54.704	1690
54.712	1681
54.72	1673
54.728	1665
54.736	1659
54.744	1656
54.752	1654
54.76	1653
54.768	1651
54.776	1648
54.784	1646
54.792	1647
54.8	1650
54.808	1651
54.816	1652
54.824	1652
54.832	1652
54.84	1652
54.848	1652
54.856	1652
54.864	1652
54.872	1652
54.88	1652
54.888	1652
54.896	1652
54.904	1652
54.912	1652
54.92	1652
54.928	1652
54.936	1652
54.944	1652
54.952	1652
54.96	1652
54.968	1652
54.976	1652
54.984	1652
54.992	1652
55	1652
55.008	1665
55.016	1685
55.024	1695
55.032	1703.00000000001
55.04	1710
55.048	1716
55.056	1729.00000000001
55.064	1749
55.072	1775
55.08	1814
55.088	1865
55.096	1930.00000000006
55.104	2005
55.112	2085
55.12	2167.00000000007
55.128	2251
55.136	2335
55.144	2409
55.152	2472
55.16	2523.00000000004
55.168	2562
55.176	2593
55.184	2615.00000000001
55.192	2623
55.2	2618
55.208	2602
55.216	2574
55.224	2540.99999999997
55.232	2509
55.24	2470
55.248	2426.99999999996
55.256	2387
55.264	2345
55.272	2301
55.28	2259
55.288	2217.99999999996
55.296	2178
55.304	2145
55.312	2122
55.32	2107
55.328	2097
55.336	2086
55.344	2073
55.352	2059.99999999999
55.36	2050
55.368	2042
55.376	2035
55.384	2032
55.392	2030
55.4	2029
55.408	2026
55.416	2021
55.424	2015
55.432	2005
55.44	1994
55.448	1978
55.456	1960
55.464	1945
55.472	1932
55.48	1917.99999999999
55.488	1904
55.496	1891
55.504	1879
55.512	1866
55.52	1852
55.528	1839
55.536	1827
55.544	1813.99999999999
55.552	1800
55.56	1790
55.568	1782
55.576	1772
55.584	1760
55.592	1750
55.6	1742
55.608	1731.99999999999
55.616	1721
55.624	1713
55.632	1709
55.64	1707
55.648	1706
55.656	1705
55.664	1705
55.672	1705
55.68	1705
55.688	1705
55.696	1705
55.704	1705
55.712	1705
55.72	1705
55.728	1705
55.736	1705
55.744	1705
55.752	1705
55.76	1705
55.768	1705
55.776	1705
55.784	1705
55.792	1705
55.8	1705
55.808	1705
55.816	1705
55.824	1705
55.832	1705
55.84	1705
55.848	1708
55.856	1712
55.864	1720.00000000001
55.872	1737
55.88	1759
55.888	1793
55.896	1843
55.904	1945
55.912	2025
55.92	2111
55.928	2293.00000000011
55.936	2381
55.944	2461
55.952	2563
55.96	2617
55.968	2660
55.976	2694
55.984	2717
55.992	2729
56	2732
56.008	2720
56.016	2695
56.024	2661
56.032	2617.99999999996
56.04	2570
56.048	2520
56.056	2468.99999999996
56.064	2421
56.072	2374
56.08	2327
56.088	2285
56.096	2244.99999999996
56.104	2205
56.112	2165
56.12	2131.99999999997
56.128	2106
56.136	2083
56.144	2065
56.152	2050
56.16	2038.99999999999
56.168	2031
56.176	2024
56.184	2015.99999999999
56.192	2008
56.2	1998
56.208	1984
56.216	1967
56.224	1948.99999999998
56.232	1930
56.24	1897
56.248	1876.99999999998
56.256	1858
56.264	1838
56.272	1826
56.28	1817
56.288	1808.99999999999
56.296	1798
56.304	1786
56.312	1773.99999999999
56.32	1758
56.328	1740
56.336	1725
56.344	1715
56.352	1710
56.36	1707
56.368	1706
56.376	1705
56.384	1705
56.392	1705
56.4	1705
56.408	1705
56.416	1705
56.424	1699
56.432	1696
56.44	1694
56.448	1693
56.456	1696
56.464	1700
56.472	1702
56.48	1703
56.488	1704
56.496	1704
56.504	1704
56.512	1704
56.52	1704
56.528	1704
56.536	1704
56.544	1704
56.552	1707
56.56	1712
56.568	1714
56.576	1715
56.584	1716
56.592	1716
56.6	1716
56.608	1719
56.616	1724
56.624	1729
56.632	1739
56.64	1751
56.648	1770
56.656	1798
56.664	1841
56.672	1906.00000000006
56.68	1983
56.688	2070
56.696	2169
56.704	2281
56.712	2395
56.72	2504
56.728	2610
56.736	2708.00000000008
56.744	2793
56.752	2866
56.76	2924
56.768	2969
56.776	3002
56.784	3024
56.792	3035
56.8	3032
56.808	3017
56.816	2990
56.824	2953
56.832	2912
56.84	2862
56.848	2808
56.856	2752
56.864	2694.99999999995
56.872	2644
56.88	2595
56.888	2552
56.896	2521
56.904	2496
56.912	2473
56.92	2452
56.928	2430.99999999998
56.936	2415
56.944	2404
56.952	2395
56.96	2384
56.968	2371
56.976	2359
56.984	2347
56.992	2333.99999999999
57	2320
57.008	2307
57.016	2291
57.024	2203
57.032	2080.99999999992
57.04	2013
57.048	1973
57.056	1946.99999999998
57.064	1930
57.072	1917
57.08	1906
57.088	1895
57.096	1885.99999999999
57.104	1877
57.112	1871
57.12	1865.99999999999
57.128	1859
57.136	1854
57.144	1851
57.152	1850
57.16	1847
57.168	1841
57.176	1835
57.184	1827.99999999999
57.192	1818
57.2	1809
57.208	1803
57.216	1798
57.224	1790.99999999999
57.232	1784
57.24	1778
57.248	1771.99999999999
57.256	1764
57.264	1758
57.272	1753
57.28	1747
57.288	1739.99999999999
57.296	1732
57.304	1724
57.312	1714.99999999999
57.32	1708
57.328	1702
57.336	1697
57.344	1695
57.352	1692
57.36	1688
57.368	1684
57.376	1678
57.384	1673
57.392	1669
57.4	1663
57.408	1656
57.416	1650
57.424	1647
57.432	1646
57.44	1645
57.448	1645
57.456	1645
57.464	1647
57.472	1652
57.48	1660.00000000001
57.488	1677
57.496	1705
57.504	1742
57.512	1786
57.52	1836
57.528	1891
57.536	1947
57.544	2002.00000000005
57.552	2054
57.56	2102
57.568	2143
57.576	2177
57.584	2205
57.592	2223
57.6	2232
57.608	2232
57.616	2221
57.624	2201
57.632	2176
57.64	2148
57.648	2117
57.656	2085
57.664	2052
57.672	2014.99999999997
57.68	1976
57.688	1937
57.696	1901
57.704	1868
57.712	1840
57.72	1818
57.728	1799
57.736	1782.99999999999
57.744	1770
57.752	1759
57.76	1750
57.768	1741
57.776	1733
57.784	1725
57.792	1716
57.8	1705.99999999999
57.808	1699
57.816	1694
57.824	1687
57.832	1678
57.84	1667
57.848	1655
57.856	1642
57.864	1628.99999999999
57.872	1617
57.88	1609
57.888	1605
57.896	1601
57.904	1597
57.912	1593
57.92	1589
57.928	1585
57.936	1579
57.944	1574
57.952	1568
57.96	1562
57.968	1557
57.976	1553
57.984	1549
57.992	1545
58	1541
58.008	1537
58.016	1533
58.024	1529
58.032	1527
58.04	1524
58.048	1520
58.056	1516
58.064	1512
58.072	1508
58.08	1501
58.088	1495
58.096	1490
58.104	1485
58.112	1483
58.12	1482
58.128	1481
58.136	1483
58.144	1486
58.152	1485
58.16	1483
58.168	1482
58.176	1481
58.184	1479
58.192	1476
58.2	1474
58.208	1473
58.216	1473
58.224	1473
58.232	1473
58.24	1475
58.248	1478
58.256	1481
58.264	1488
58.272	1494
58.28	1499
58.288	1508.00000000001
58.296	1520
58.304	1537
58.312	1561.00000000002
58.32	1589
58.328	1622
58.336	1660
58.344	1703
58.352	1752.00000000004
58.36	1801
58.368	1848
58.376	1892
58.384	1933
58.392	1969
58.4	1998
58.408	2021
58.416	2039.00000000001
58.424	2050
58.432	2053
58.44	2049
58.448	2038
58.456	2021
58.464	2001
58.472	1976
58.48	1947.99999999997
58.488	1919
58.496	1892
58.504	1867
58.512	1844
58.52	1824
58.528	1808
58.536	1794
58.544	1779.99999999999
58.552	1768
58.56	1758
58.568	1751
58.576	1746
58.584	1739
58.592	1732
58.6	1724
58.608	1717.99999999999
58.616	1712
58.624	1704
58.632	1698
58.64	1693
58.648	1687
58.656	1680
58.664	1672
58.672	1663.99999999999
58.68	1653
58.688	1641
58.696	1631
58.704	1622
58.712	1615
58.72	1612
58.728	1610
58.736	1607
58.744	1604
58.752	1602
58.76	1601
58.768	1601
58.776	1601
58.784	1603
58.792	1606
58.8	1607
58.808	1608
58.816	1608
58.824	1608
58.832	1608
58.84	1608
58.848	1608
58.856	1608
58.864	1608
58.872	1608
58.88	1608
58.888	1608
58.896	1608
58.904	1608
58.912	1608
58.92	1608
58.928	1608
58.936	1608
58.944	1608
58.952	1606
58.96	1603
58.968	1602
58.976	1599
58.984	1598
58.992	1599
59	1600
59.008	1600
59.016	1600
59.024	1600
59.032	1600
59.04	1600
59.048	1600
59.056	1600
59.064	1602
59.072	1643
59.08	1702
59.088	1731
59.096	1746.00000000001
59.104	1755
59.112	1765
59.12	1780.00000000002
59.128	1804
59.136	1839
59.144	1885
59.152	1940
59.16	1999.00000000005
59.168	2059
59.176	2119
59.184	2179.00000000005
59.192	2239
59.2	2294
59.208	2338
59.216	2372
59.224	2397.00000000002
59.232	2413
59.24	2418
59.248	2415
59.256	2407
59.264	2393
59.272	2373
59.28	2348
59.288	2317.99999999997
59.296	2283
59.304	2248
59.312	2211.99999999997
59.32	2174
59.328	2138
59.336	2108
59.344	2083
59.352	2062.99999999998
59.36	2048
59.368	2035
59.376	2023.99999999999
59.384	2013
59.392	2005
59.4	1999
59.408	1992
59.416	1982.99999999999
59.424	1976
59.432	1972
59.44	1968
59.448	1964
59.456	1959
59.464	1952
59.472	1943
59.48	1933.99999999999
59.488	1924
59.496	1914
59.504	1904
59.512	1894
59.52	1884
59.528	1874
59.536	1864
59.544	1853.99999999999
59.552	1844
59.56	1834
59.568	1824
59.576	1814
59.584	1804
59.592	1794
59.6	1784
59.608	1773.99999999999
59.616	1767
59.624	1764
59.632	1762
59.64	1761
59.648	1761
59.656	1761
59.664	1761
59.672	1761
59.68	1761
59.688	1759
59.696	1756
59.704	1754
59.712	1750
59.72	1745
59.728	1743
59.736	1745
59.744	1749
59.752	1751
59.76	1754
59.768	1757
59.776	1759
59.784	1760
59.792	1760
59.8	1760
59.808	1760
59.816	1760
59.824	1760
59.832	1760
59.84	1760
59.848	1760
59.856	1760
59.864	1760
59.872	1760
59.88	1760
59.888	1760
59.896	1762
59.904	1765
59.912	1767
59.92	1771
59.928	1781.00000000001
59.936	1798
59.944	1823
59.952	1861
59.96	1915
59.968	1979
59.976	2046
59.984	2114
59.992	2183.00000000006
60	2251
60.008	2310
60.016	2356
60.024	2393
60.032	2424.00000000002
60.04	2449
60.048	2467
60.056	2476
60.064	2475
60.072	2465
60.08	2446
60.088	2419
60.096	2390.99999999997
60.104	2360
60.112	2324
60.12	2285.99999999997
60.128	2247
60.136	2208
60.144	2170
60.152	2136
60.16	2106.99999999998
60.168	2083
60.176	2063
60.184	2047.99999999999
60.192	2033
60.2	2018
60.208	2007
60.216	2000
60.224	1994
60.232	1991
60.24	1990
60.248	1987
60.256	1981
60.264	1973
60.272	1964
60.28	1954
60.288	1943.99999999999
60.296	1934
60.304	1924
60.312	1913.99999999999
60.32	1904
60.328	1891
60.336	1878
60.344	1866
60.352	1851.99999999999
60.36	1835
60.368	1817
60.376	1797.99999999998
60.384	1781
60.392	1771
60.4	1766
60.408	1761
60.416	1757
60.424	1755
60.432	1754
60.44	1750
60.448	1745
60.456	1741
60.464	1737
60.472	1732
60.48	1726
60.488	1721
60.496	1717
60.504	1712
60.512	1704
60.52	1698
60.528	1692
60.536	1686
60.544	1683
60.552	1685
60.56	1689
60.568	1691
60.576	1692
60.584	1692
60.592	1692
60.6	1692
60.608	1694
60.616	1697
60.624	1699
60.632	1703
60.64	1708
60.648	1712
60.656	1716
60.664	1721
60.672	1727
60.68	1730
60.688	1733
60.696	1740
60.704	1748
60.712	1756
60.72	1767
60.728	1781
60.736	1798.00000000002
60.744	1823
60.752	1856
60.76	1897
60.768	1950
60.776	2011
60.784	2080
60.792	2154
60.8	2233.00000000007
60.808	2310
60.816	2378
60.824	2442
60.832	2501
60.84	2553
60.848	2597
60.856	2632
60.864	2656.00000000001
60.872	2668
60.88	2669
60.888	2660
60.896	2640
60.904	2615
60.912	2586
60.92	2551
60.928	2513.99999999997
60.936	2473
60.944	2433
60.952	2398
60.96	2363
60.968	2328
60.976	2297
60.984	2270
60.992	2243.99999999998
61	2223
61.008	2208
61.016	2195
61.024	2184
61.032	2172.99999999999
61.04	2165
61.048	2159
61.056	2150.99999999999
61.064	2142
61.072	2130
61.08	2116
61.088	2101
61.096	2086.99999999999
61.104	2075
61.112	2066
61.12	2028.99999999996
61.128	1977
61.136	1949
61.144	1932
61.152	1920
61.16	1911.99999999999
61.168	1906
61.176	1901
61.184	1897
61.192	1895
61.2	1892
61.208	1888
61.216	1884
61.224	1876.99999999999
61.232	1871
61.24	1866
61.248	1858.99999999999
61.256	1854
61.264	1849
61.272	1845
61.28	1843
61.288	1842
61.296	1841
61.304	1841
61.312	1838
61.32	1833
61.328	1829
61.336	1825
61.344	1821
61.352	1817
61.36	1815
61.368	1814
61.376	1813
61.384	1813
61.392	1813
61.4	1813
61.408	1813
61.416	1813
61.424	1815
61.432	1818
61.44	1819
61.448	1820
61.456	1820
61.464	1820
61.472	1820
61.48	1818
61.488	1815
61.496	1812
61.504	1808
61.512	1804
61.52	1802
61.528	1803
61.536	1808
61.544	1819.00000000001
61.552	1836
61.56	1859
61.568	1891
61.576	1929
61.584	1975
61.592	2029
61.6	2089
61.608	2153.00000000006
61.616	2216
61.624	2278
61.632	2340
61.64	2397
61.648	2446
61.656	2486
61.664	2515
61.672	2534.00000000001
61.68	2543
61.688	2542
61.696	2532
61.704	2516
61.712	2495
61.72	2469
61.728	2436
61.736	2396.99999999996
61.744	2356
61.752	2313
61.76	2270
61.768	2228
61.776	2189
61.784	2152
61.792	2115
61.8	2080.99999999997
61.808	2049
61.816	2018
61.824	1988
61.832	1964
61.84	1946
61.848	1930
61.856	1915
61.864	1901.99999999999
61.872	1891
61.88	1879
61.888	1864
61.896	1849
61.904	1835
61.912	1820
61.92	1803
61.928	1785.99999999998
61.936	1768
61.944	1750
61.952	1732
61.96	1714
61.968	1697
61.976	1683
61.984	1671
61.992	1659.99999999999
62	1650
62.008	1643
62.016	1638
62.024	1630
62.032	1620.99999999999
62.04	1613
62.048	1605
62.056	1599
62.064	1594
62.072	1586
62.08	1579
62.088	1576
62.096	1572
62.104	1568
62.112	1564
62.12	1560
62.128	1556
62.136	1549
62.144	1541
62.152	1533
62.16	1524.99999999999
62.168	1517
62.176	1511
62.184	1504.99999999999
62.192	1499
62.2	1494
62.208	1489
62.216	1487
62.224	1486
62.232	1483
62.24	1480
62.248	1478
62.256	1475
62.264	1472
62.272	1468
62.28	1464
62.288	1459
62.296	1454
62.304	1451
62.312	1450
62.32	1449
62.328	1449
62.336	1452
62.344	1458
62.352	1465.00000000001
62.36	1473
62.368	1481
62.376	1492.00000000001
62.384	1506
62.392	1524
62.4	1551
62.408	1587
62.416	1627.00000000004
62.424	1671
62.432	1720
62.44	1773.00000000005
62.448	1831
62.456	1887
62.464	1935
62.472	1974
62.48	2006.00000000003
62.488	2031
62.496	2046
62.504	2051
62.512	2050
62.52	2042
62.528	2029
62.536	2012
62.544	1988.99999999998
62.552	1965
62.56	1942
62.568	1919
62.576	1895
62.584	1869
62.592	1845
62.6	1825
62.608	1805.99999999998
62.616	1789
62.624	1777
62.632	1769
62.64	1762
62.648	1753
62.656	1745
62.664	1739
62.672	1733.99999999999
62.68	1727
62.688	1719
62.696	1710
62.704	1701
62.712	1693
62.72	1687
62.728	1682
62.736	1677
62.744	1675
62.752	1674
62.76	1671
62.768	1665
62.776	1659
62.784	1654
62.792	1649
62.8	1647
62.808	1646
62.816	1645
62.824	1645
62.832	1645
62.84	1645
62.848	1643
62.856	1640
62.864	1638
62.872	1635
62.88	1632
62.888	1627
62.896	1622
62.904	1619
62.912	1618
62.92	1617
62.928	1617
62.936	1617
62.944	1617
62.952	1615
62.96	1610
62.968	1605
62.976	1603
62.984	1602
62.992	1601
63	1603
63.008	1606
63.016	1609
63.024	1611
63.032	1610
63.04	1609
63.048	1609
63.056	1609
63.064	1609
63.072	1609
63.08	1609
63.088	1609
63.096	1609
63.104	1609
63.112	1609
63.12	1609
63.128	1611
63.136	1617
63.144	1625
63.152	1633
63.16	1641.00000000001
63.168	1677
63.176	1727
63.184	1754.00000000002
63.192	1769
63.2	1782
63.208	1798
63.216	1820
63.224	1849.00000000003
63.232	1888
63.24	1932
63.248	1979.00000000004
63.256	2027
63.264	2072
63.272	2113
63.28	2150
63.288	2181.00000000002
63.296	2205
63.304	2220
63.312	2228
63.32	2232
63.328	2231
63.336	2226
63.344	2217
63.352	2203.99999999999
63.36	2187
63.368	2167
63.376	2143.99999999998
63.384	2119
63.392	2093
63.4	2067
63.408	2043
63.416	2022.99999999998
63.424	2006
63.432	1991
63.44	1978.99999999999
63.448	1968
63.456	1960
63.464	1954
63.472	1949
63.48	1947
63.488	1944
63.496	1940
63.504	1938
63.512	1937
63.52	1935
63.528	1932
63.536	1930
63.544	1929
63.552	1928
63.56	1924
63.568	1918
63.576	1911
63.584	1904
63.592	1897
63.6	1891
63.608	1883.99999999999
63.616	1874
63.624	1864
63.632	1856
63.64	1848
63.648	1840
63.656	1833
63.664	1827
63.672	1819.99999999999
63.68	1812
63.688	1803
63.696	1794
63.704	1787
63.712	1782
63.72	1777
63.728	1775
63.736	1774
63.744	1771
63.752	1768
63.76	1766
63.768	1765
63.776	1765
63.784	1765
63.792	1765
63.8	1765
63.808	1765
63.816	1765
63.824	1765
63.832	1765
63.84	1767
63.848	1770
63.856	1771
63.864	1774
63.872	1777
63.88	1779
63.888	1780
63.896	1780
63.904	1780
63.912	1780
63.92	1780
63.928	1780
63.936	1780
63.944	1780
63.952	1780
63.96	1780
63.968	1780
63.976	1780
63.984	1782
63.992	1786
64	1791
64.008	1800
64.016	1813
64.024	1834
64.032	1862
64.04	1898
64.048	1941
64.056	1988
64.064	2036.00000000009
64.072	2085
64.08	2135
64.088	2179.00000000007
64.096	2216
64.104	2247
64.112	2272
64.12	2289
64.128	2301
64.136	2309
64.144	2311
64.152	2307
64.16	2298
64.168	2282
64.176	2260
64.184	2236
64.192	2210.99999999995
64.2	2185
64.208	2156
64.216	2126.99999999995
64.224	2101
64.232	2077
64.24	2056
64.248	2036
64.256	2020
64.264	2010
64.272	2004
64.28	1998
64.288	1993
64.296	1989
64.304	1985
64.312	1981
64.32	1977
64.328	1975
64.336	1972
64.344	1968
64.352	1966
64.36	1964
64.368	1960
64.376	1954
64.384	1947
64.392	1939
64.4	1930
64.408	1923
64.416	1918
64.424	1911
64.432	1904
64.44	1897
64.448	1890.99999999999
64.456	1884
64.464	1876
64.472	1867.99999999999
64.48	1861
64.488	1857
64.496	1853
64.504	1847
64.512	1842
64.52	1837
64.528	1832
64.536	1826
64.544	1819
64.552	1814
64.56	1809
64.568	1803
64.576	1796.99999999999
64.584	1791
64.592	1784
64.6	1778
64.608	1773
64.616	1769
64.624	1767
64.632	1768
64.64	1770
64.648	1771
64.656	1770
64.664	1767
64.672	1765
64.68	1761
64.688	1757
64.696	1753
64.704	1749
64.712	1747
64.72	1746
64.728	1745
64.736	1745
64.744	1745
64.752	1745
64.76	1745
64.768	1747
64.776	1750
64.784	1753
64.792	1758
64.8	1763
64.808	1770
64.816	1777
64.824	1786
64.832	1800.00000000003
64.84	1823
64.848	1855
64.856	1896
64.864	1943
64.872	1992
64.88	2041
64.888	2092
64.896	2142
64.904	2188
64.912	2229
64.92	2266
64.928	2297
64.936	2320
64.944	2334
64.952	2341
64.96	2342
64.968	2337
64.976	2327
64.984	2313
64.992	2296
65	2274
65.008	2250
65.016	2228
65.024	2205
65.032	2181
65.04	2156
65.048	2131
65.056	2108
65.064	2086.99999999997
65.072	2072
65.08	2060
65.088	2049.99999999998
65.096	2041
65.104	2034
65.112	2027
65.12	2020
65.128	2012
65.136	2006
65.144	2003
65.152	2001
65.16	1999
65.168	1998
65.176	1997
65.184	1997
65.192	1997
65.2	1997
65.208	1997
65.216	1989.99999999998
65.224	1979
65.232	1971
65.24	1964
65.248	1960
65.256	1956
65.264	1949
65.272	1941
65.28	1932
65.288	1924
65.296	1920
65.304	1921
65.312	1925
65.32	1927
65.328	1928
65.336	1928
65.344	1924.99999999999
65.352	1921
65.36	1916
65.368	1910
65.376	1907
65.384	1906
65.392	1905
65.4	1905
65.408	1905
65.416	1905
65.424	1905
65.432	1903
65.44	1900
65.448	1898
65.456	1897
65.464	1897
65.472	1899
65.48	1902
65.488	1903
65.496	1904
65.504	1904
65.512	1907
65.52	1912
65.528	1917
65.536	1923
65.544	1926
65.552	1927
65.56	1925
65.568	1921
65.576	1915.99999999999
65.584	1910
65.592	1907
65.6	1906
65.608	1908
65.616	1917
65.624	1935
65.632	1960
65.64	1991
65.648	2031
65.656	2079
65.664	2137
65.672	2203
65.68	2275
65.688	2356
65.696	2441
65.704	2524.00000000014
65.712	2600
65.72	2667
65.728	2727
65.736	2778
65.744	2816
65.752	2843
65.76	2862
65.768	2871
65.776	2871
65.784	2863
65.792	2843
65.8	2812
65.808	2773
65.816	2725
65.824	2672
65.832	2617.9999999999
65.84	2564
65.848	2514
65.856	2468
65.864	2424
65.872	2384
65.88	2350
65.888	2322
65.896	2298
65.904	2276
65.912	2254
65.92	2232
65.928	2213
65.936	2196
65.944	2177
65.952	2160
65.96	2142.99999999997
65.968	2127
65.976	2111
65.984	2095
65.992	2079
66	2061
66.008	2042
66.016	2021
66.024	2003
66.032	1986
66.04	1969
66.048	1954
66.056	1935
66.064	1917.99999999997
66.072	1904
66.08	1889
66.088	1873.99999999997
66.096	1858
66.104	1842
66.112	1817
66.12	1798
66.128	1779
66.136	1753
66.144	1737
66.152	1722
66.16	1706
66.168	1692
66.176	1677
66.184	1663
66.192	1653.99999999998
66.2	1646
66.208	1636
66.216	1625.99999999998
66.224	1616
66.232	1608
66.24	1601
66.248	1595
66.256	1592
66.264	1588
66.272	1584
66.28	1582
66.288	1578
66.296	1573
66.304	1569
66.312	1565
66.32	1563
66.328	1562
66.336	1561
66.344	1561
66.352	1561
66.36	1558
66.368	1553
66.376	1551
66.384	1550
66.392	1552
66.4	1556
66.408	1560
66.416	1564
66.424	1569
66.432	1577
66.44	1586
66.448	1596.00000000002
66.456	1612
66.464	1633
66.472	1659.00000000005
66.48	1695
66.488	1769
66.496	1827
66.504	1888
66.512	2005
66.52	2056
66.528	2104
66.536	2164
66.544	2193
66.552	2213
66.56	2223
66.568	2223
66.576	2211.99999999998
66.584	2195
66.592	2174
66.6	2129
66.608	2095
66.616	2058
66.624	2002
66.632	1967
66.64	1934
66.648	1904
66.656	1878
66.664	1854
66.672	1835
66.68	1824
66.688	1815
66.696	1805
66.704	1794.99999999998
66.712	1785
66.72	1774
66.728	1763
66.736	1753
66.744	1745
66.752	1738
66.76	1729
66.768	1720
66.776	1710
66.784	1700
66.792	1689
66.8	1679
66.808	1669
66.816	1661
66.824	1657
66.832	1655
66.84	1652
66.848	1648
66.856	1646
66.864	1642
66.872	1637
66.88	1632
66.888	1626
66.896	1623
66.904	1622
66.912	1621
66.92	1621
66.928	1621
66.936	1621
66.944	1621
66.952	1619
66.96	1616
66.968	1614
66.976	1613
66.984	1613
66.992	1613
67	1613
67.008	1610
67.016	1605
67.024	1603
67.032	1602
67.04	1601
67.048	1601
67.056	1601
67.064	1601
67.072	1604
67.08	1608
67.088	1610
67.096	1611
67.104	1612
67.112	1614
67.12	1617
67.128	1619
67.136	1620
67.144	1620
67.152	1620
67.16	1618
67.168	1615
67.176	1614
67.184	1615
67.192	1621.00000000001
67.2	1630
67.208	1639
67.216	1646.00000000001
67.224	1652
67.232	1663
67.24	1676
67.248	1687
67.256	1702
67.264	1723
67.272	1751
67.28	1783
67.288	1820
67.296	1859
67.304	1899
67.312	1940
67.32	1979.00000000007
67.328	2017
67.336	2052
67.344	2080.00000000004
67.352	2099
67.36	2110
67.368	2114
67.376	2113
67.384	2107
67.392	2097
67.4	2085
67.408	2070
67.416	2050
67.424	2026
67.432	2000
67.44	1975
67.448	1949.99999999995
67.456	1924
67.464	1903
67.472	1885.99999999997
67.48	1870
67.488	1857
67.496	1847
67.504	1838
67.512	1830
67.52	1823
67.528	1818
67.536	1813
67.544	1807
67.552	1802
67.56	1797
67.568	1792
67.576	1787.99999999999
67.584	1784
67.592	1780
67.6	1776
67.608	1770
67.616	1764
67.624	1758
67.632	1751
67.64	1743
67.648	1734
67.656	1725
67.664	1717
67.672	1710
67.68	1701
67.688	1691
67.696	1683
67.704	1677.99999999999
67.712	1675
67.72	1674
67.728	1673
67.736	1673
67.744	1673
67.752	1673
67.76	1673
67.768	1673
67.776	1673
67.784	1673
67.792	1673
67.8	1673
67.808	1673
67.816	1673
67.824	1673
67.832	1673
67.84	1673
67.848	1673
67.856	1673
67.864	1673
67.872	1673
67.88	1673
67.888	1673
67.896	1673
67.904	1673
67.912	1673
67.92	1673
67.928	1673
67.936	1673
67.944	1673
67.952	1671
67.96	1668
67.968	1666
67.976	1667
67.984	1670
67.992	1671
68	1672
68.008	1672
68.016	1672
68.024	1672
68.032	1672
68.04	1673
68.048	1677
68.056	1685
68.064	1698.00000000003
68.072	1716
68.08	1739
68.088	1769.00000000006
68.096	1807
68.104	1848
68.112	1891
68.12	1938
68.128	1984
68.136	2028
68.144	2067
68.152	2100
68.16	2127
68.168	2148
68.176	2161
68.184	2168
68.192	2168
68.2	2162
68.208	2150
68.216	2133.99999999997
68.224	2116
68.232	2096
68.24	2075
68.248	2055
68.256	2033
68.264	2009
68.272	1986
68.28	1964
68.288	1942
68.296	1922
68.304	1907
68.312	1896
68.32	1886.99999999999
68.328	1880
68.336	1872
68.344	1863.99999999999
68.352	1857
68.36	1851
68.368	1844
68.376	1838
68.384	1833
68.392	1829
68.4	1826
68.408	1823
68.416	1820
68.424	1814
68.432	1805
68.44	1796
68.448	1785.99999999998
68.456	1775
68.464	1765
68.472	1754.99999999998
68.48	1745
68.488	1733
68.496	1720
68.504	1708
68.512	1696
68.52	1685
68.528	1679
68.536	1676
68.544	1674
68.552	1673
68.56	1673
68.568	1673
68.576	1673
68.584	1673
68.592	1671
68.6	1668
68.608	1666
68.616	1665
68.624	1663
68.632	1660
68.64	1658
68.648	1657
68.656	1657
68.664	1659
68.672	1662
68.68	1663
68.688	1664
68.696	1664
68.704	1664
68.712	1662
68.72	1659
68.728	1658
68.736	1659
68.744	1662
68.752	1665
68.76	1669
68.768	1671
68.776	1672
68.784	1672
68.792	1672
68.8	1672
68.808	1672
68.816	1672
68.824	1672
68.832	1672
68.84	1672
68.848	1672
68.856	1673
68.864	1677
68.872	1685
68.88	1698
68.888	1716
68.896	1742
68.904	1776
68.912	1816
68.92	1861
68.928	1907
68.936	1953
68.944	1999
68.952	2041
68.96	2078.00000000006
68.968	2107
68.976	2129
68.984	2147
68.992	2160
69	2166
69.008	2167
69.016	2161
69.024	2147
69.032	2129
69.04	2108
69.048	2083
69.056	2057
69.064	2027.99999999995
69.072	1997
69.08	1970
69.088	1944.99999999996
69.096	1922
69.104	1903
69.112	1891
69.12	1882
69.128	1873
69.136	1865
69.144	1858
69.152	1851
69.16	1844
69.168	1838
69.176	1833
69.184	1829
69.192	1829
69.2	1831
69.208	1832
69.216	1832
69.224	1830
69.232	1826
69.24	1821
69.248	1813
69.256	1803
69.264	1795
69.272	1786
69.28	1780
69.288	1777
69.296	1773
69.304	1768
69.312	1759
69.32	1748.99999999998
69.328	1738
69.336	1726
69.344	1716.99999999999
69.352	1710
69.36	1700
69.368	1692
69.376	1685
69.384	1676
69.392	1665
69.4	1654
69.408	1642
69.416	1633
69.424	1629
69.432	1627
69.44	1626
69.448	1625
69.456	1625
69.464	1625
69.472	1625
69.48	1625
69.488	1625
69.496	1625
69.504	1625
69.512	1625
69.52	1625
69.528	1625
69.536	1625
69.544	1625
69.552	1628
69.56	1632
69.568	1637
69.576	1643.00000000001
69.584	1646
69.592	1647
69.6	1648
69.608	1645
69.616	1641
69.624	1636
69.632	1630
69.64	1627
69.648	1629
69.656	1636
69.664	1648
69.672	1666
69.68	1693
69.688	1734
69.696	1788
69.704	1855.00000000013
69.712	1931
69.72	2014
69.728	2103
69.736	2200
69.744	2300
69.752	2395
69.76	2488
69.768	2576
69.776	2654
69.784	2718
69.792	2768
69.8	2805
69.808	2824
69.816	2827
69.824	2820
69.832	2800.99999999996
69.84	2773
69.848	2740
69.856	2702
69.864	2659
69.872	2614
69.88	2567
69.888	2517
69.896	2465
69.904	2421
69.912	2384
69.92	2350
69.928	2323
69.936	2300
69.944	2279
69.952	2263
69.96	2248.99999999998
69.968	2236
69.976	2223
69.984	2211
69.992	2199
70	2187
70.008	2175
70.016	2163
70.024	2148
70.032	2128
70.04	2106
70.048	2083
70.056	2060
70.064	2035.99999999996
70.072	2018
70.08	2006
70.088	1993.99999999998
70.096	1982
70.104	1970
70.112	1958
70.12	1946
70.128	1931
70.136	1915
70.144	1898
70.152	1880
70.16	1864
70.168	1849
70.176	1839
70.184	1831
70.192	1820.99999999998
70.2	1810
70.208	1798
70.216	1782.99999999997
70.224	1767
70.232	1753
70.24	1740
70.248	1730
70.256	1719
70.264	1705
70.272	1692
70.28	1676
70.288	1656
70.296	1640
70.304	1629
70.312	1621
70.32	1616.99999999999
70.328	1612
70.336	1606
70.344	1599.99999999999
70.352	1591
70.36	1584
70.368	1577
70.376	1571
70.384	1568
70.392	1566
70.4	1562
70.408	1554
70.416	1547
70.424	1541
70.432	1532
70.44	1524
70.448	1516.99999999999
70.456	1511
70.464	1508
70.472	1506
70.48	1505
70.488	1505
70.496	1508
70.504	1518
70.512	1538
70.52	1569
70.528	1609
70.536	1656
70.544	1709
70.552	1773
70.56	1845
70.568	1917
70.576	1986.00000000012
70.584	2050
70.592	2109
70.6	2160.00000000008
70.608	2203
70.616	2240
70.624	2264
70.632	2276
70.64	2279
70.648	2272
70.656	2256
70.664	2230
70.672	2193
70.68	2151
70.688	2106
70.696	2059
70.704	2011.99999999992
70.712	1967
70.72	1927
70.728	1888
70.736	1849
70.744	1815
70.752	1789
70.76	1767
70.768	1747
70.776	1728
70.784	1709
70.792	1691
70.8	1673
70.808	1658
70.816	1644
70.824	1634
70.832	1628.99999999999
70.84	1627
70.848	1626
70.856	1625
70.864	1625
70.872	1622
70.88	1617
70.888	1612
70.896	1606
70.904	1600
70.912	1594
70.92	1588
70.928	1582
70.936	1579
70.944	1575
70.952	1570
70.96	1566.99999999999
70.968	1563
70.976	1558
70.984	1552
70.992	1546
71	1543
71.008	1542
71.016	1541
71.024	1541
71.032	1541
71.04	1541
71.048	1541
71.056	1541
71.064	1537.99999999999
71.072	1533
71.08	1531
71.088	1530
71.096	1526
71.104	1521
71.112	1519
71.12	1515
71.128	1513
71.136	1515
71.144	1516
71.152	1516
71.16	1513
71.168	1509
71.176	1507
71.184	1503
71.192	1497.99999999999
71.2	1495
71.208	1494
71.216	1493
71.224	1493
71.232	1493
71.24	1493
71.248	1493
71.256	1493
71.264	1493
71.272	1493
71.28	1493
71.288	1496
71.296	1500
71.304	1505
71.312	1514
71.32	1527.00000000004
71.328	1568
71.336	1622
71.344	1663.00000000007
71.352	1702
71.36	1741
71.368	1783
71.376	1830
71.384	1877
71.392	1921
71.4	1963
71.408	2004
71.416	2042
71.424	2075
71.432	2102
71.44	2121
71.448	2133.00000000001
71.456	2137
71.464	2133
71.472	2122.99999999998
71.48	2108
71.488	2088
71.496	2064
71.504	2038
71.512	2011
71.52	1982
71.528	1955
71.536	1932
71.544	1912
71.552	1896
71.56	1882
71.568	1871
71.576	1861.99999999998
71.584	1853
71.592	1845
71.6	1838.99999999999
71.608	1834
71.616	1829
71.624	1825
71.632	1821
71.64	1817
71.648	1813
71.656	1809
71.664	1803
71.672	1796
71.68	1788
71.688	1780
71.696	1772
71.704	1763.99999999999
71.712	1756
71.72	1748
71.728	1740
71.736	1732
71.744	1724
71.752	1714
71.76	1703
71.768	1696
71.776	1690
71.784	1685
71.792	1683
71.8	1684
71.808	1686
71.816	1687
71.824	1688
71.832	1686
71.84	1683
71.848	1682
71.856	1679
71.864	1676
71.872	1672
71.88	1668
71.888	1666
71.896	1667
71.904	1670
71.912	1671
71.92	1672
71.928	1672
71.936	1672
71.944	1672
71.952	1674
71.96	1677
71.968	1679
71.976	1682
71.984	1685
71.992	1687
72	1688
72.008	1688
72.016	1688
72.024	1688
72.032	1688
72.04	1688
72.048	1688
72.056	1688
72.064	1688
72.072	1688
