Time	PPG1
0	2180
0.008	2180
0.016	2180
0.024	2180
0.032	2180
0.04	2180
0.048	2180
0.056	2180
0.064	2180
0.072	2180
0.08	2180
0.088	2180
0.096	2180
0.104	2180
0.112	2183
0.12	2188
0.128	2193
0.136	2206
0.144	2228
0.152	2261
0.16	2303
0.168	2355
0.176	2419
0.184	2489
0.192	2559
0.2	2626
0.208	2690
0.216	2750
0.224	2803
0.232	2849
0.24	2891
0.248	2925
0.256	2948
0.264	2959
0.272	2962
0.28	2960
0.288	2949
0.296	2928
0.304	2895
0.312	2853
0.32	2807
0.328	2756
0.336	2701
0.344	2649
0.352	2601
0.36	2558
0.368	2521
0.376	2487
0.384	2454
0.392	2421
0.4	2389
0.408	2358
0.416	2250
0.424	2108
0.432	2025
0.44	1973
0.448	1940
0.456	1916
0.464	1897
0.472	1881
0.48	1864
0.488	1847
0.496	1832
0.504	1815
0.512	1800
0.52	1785
0.528	1766
0.536	1744
0.544	1723
0.552	1704
0.56	1685
0.568	1666
0.576	1647
0.584	1631
0.592	1618
0.6	1607
0.608	1597
0.616	1587
0.624	1578
0.632	1568
0.64	1558
0.648	1551
0.656	1546
0.664	1538
0.672	1531
0.68	1526
0.688	1519
0.696	1511
0.704	1502
0.712	1492
0.72	1484
0.728	1478
0.736	1471
0.744	1466
0.752	1460
0.76	1452
0.768	1444
0.776	1438
0.784	1432
0.792	1426
0.8	1423
0.808	1422
0.816	1419
0.824	1416
0.832	1412
0.84	1408
0.848	1406
0.856	1402
0.864	1397
0.872	1395
0.88	1392
0.888	1388
0.896	1386
0.904	1385
0.912	1385
0.92	1385
0.928	1385
0.936	1385
0.944	1387
0.952	1393
0.96	1401
0.968	1409
0.976	1420
0.984	1435
0.992	1455
1	1479
1.008	1505
1.016	1537
1.024	1572
1.032	1605
1.04	1640
1.048	1676
1.056	1713
1.064	1748
1.072	1779
1.08	1807
1.088	1831
1.096	1850
1.104	1861
1.112	1867
1.12	1868
1.128	1861
1.136	1848
1.144	1834
1.152	1820
1.16	1804
1.168	1787
1.176	1772
1.184	1757
1.192	1740
1.2	1724
1.208	1711
1.216	1700
1.224	1690
1.232	1680
1.24	1670
1.248	1661
1.256	1652
1.264	1644
1.272	1638
1.28	1633
1.288	1629
1.296	1622
1.304	1615
1.312	1612
1.32	1610
1.328	1609
1.336	1609
1.344	1609
1.352	1609
1.36	1609
1.368	1609
1.376	1609
1.384	1609
1.392	1609
1.4	1609
1.408	1609
1.416	1609
1.424	1609
1.432	1609
1.44	1609
1.448	1609
1.456	1609
1.464	1609
1.472	1609
1.48	1609
1.488	1609
1.496	1609
1.504	1609
1.512	1609
1.52	1609
1.528	1609
1.536	1609
1.544	1609
1.552	1609
1.56	1607
1.568	1604
1.576	1602
1.584	1603
1.592	1606
1.6	1607
1.608	1608
1.616	1608
1.624	1608
1.632	1608
1.64	1608
1.648	1608
1.656	1608
1.664	1608
1.672	1608
1.68	1608
1.688	1608
1.696	1608
1.704	1608
1.712	1608
1.72	1608
1.728	1608
1.736	1608
1.744	1608
1.752	1608
1.76	1608
1.768	1608
1.776	1608
1.784	1608
1.792	1608
1.8	1611
1.808	1620
1.816	1633
1.824	1652
1.832	1678
1.84	1712
1.848	1750
1.856	1791
1.864	1835
1.872	1878
1.88	1918
1.888	1954
1.896	1986
1.904	2016
1.912	2043
1.92	2067
1.928	2084
1.936	2094
1.944	2099
1.952	2095
1.96	2083
1.968	2065
1.976	2042
1.984	2016
1.992	1989
2	1964
2.008	1942
2.016	1922
2.024	1905
2.032	1895
2.04	1887
2.048	1878
2.056	1871
2.064	1866
2.072	1858
2.08	1851
2.088	1846
2.096	1838
2.104	1831
2.112	1828
2.12	1826
2.128	1823
2.136	1820
2.144	1818
2.152	1815
2.16	1809
2.168	1801
2.176	1793
2.184	1784
2.192	1774
2.2	1765
2.208	1759
2.216	1753
2.224	1747
2.232	1742
2.24	1735
2.248	1727
2.256	1715
2.264	1702
2.272	1691
2.28	1684
2.288	1677
2.296	1671
2.304	1666
2.312	1659
2.32	1651
2.328	1642
2.336	1633
2.344	1624
2.352	1616
2.36	1612
2.368	1610
2.376	1609
2.384	1609
2.392	1609
2.4	1609
2.408	1609
2.416	1609
2.424	1609
2.432	1609
2.44	1609
2.448	1609
2.456	1609
2.464	1677
2.472	1779
2.48	1830
2.488	1855
2.496	1868
2.504	1874
2.512	1877
2.52	1879
2.528	1880
2.536	1880
2.544	1880
2.552	1880
2.56	1880
2.568	1880
2.576	1880
2.584	1880
2.592	1880
2.6	1880
2.608	1880
2.616	1883
2.624	1891
2.632	1903
2.64	1920
2.648	1943
2.656	1976
2.664	2015
2.672	2061
2.68	2113
2.688	2168
2.696	2224
2.704	2281
2.712	2337
2.72	2388
2.728	2433
2.736	2474
2.744	2508
2.752	2536
2.76	2559
2.768	2577
2.776	2586
2.784	2584
2.792	2574
2.8	2558
2.808	2536
2.816	2510
2.824	2482
2.832	2454
2.84	2429
2.848	2405
2.856	2381
2.864	2357
2.872	2333
2.88	2313
2.888	2295
2.896	2274
2.904	2257
2.912	2246
2.92	2237
2.928	2230
2.936	2220
2.944	2212
2.952	2205
2.96	2196
2.968	2188
2.976	2181
2.984	2173
2.992	2164
3	2153
3.008	2142
3.016	2127
3.024	2111
3.032	2097
3.04	2087
3.048	2079
3.056	2069
3.064	2058
3.072	2047
3.08	2037
3.088	2023
3.096	2007
3.104	1993
3.112	1983
3.12	1975
3.128	1965
3.136	1954
3.144	1942
3.152	1930
3.16	1919
3.168	1909
3.176	1898
3.184	1889
3.192	1885
3.2	1883
3.208	1882
3.216	1878
3.224	1873
3.232	1871
3.24	1870
3.248	1869
3.256	1869
3.264	1869
3.272	1869
3.28	1869
3.288	1869
3.296	1869
3.304	1869
3.312	1866
3.32	1861
3.328	1859
3.336	1861
3.344	1865
3.352	1867
3.36	1868
3.368	1868
3.376	1868
3.384	1868
3.392	1868
3.4	1868
3.408	1868
3.416	1871
3.424	1876
3.432	1878
3.44	1879
3.448	1880
3.456	1883
3.464	1891
3.472	1906
3.48	1930
3.488	1963
3.496	2006
3.504	2059
3.512	2121
3.52	2184
3.528	2244
3.536	2300
3.544	2354
3.552	2404
3.56	2450
3.568	2493
3.576	2532
3.584	2563
3.592	2585
3.6	2599
3.608	2603
3.616	2599
3.624	2588
3.632	2571
3.64	2549
3.648	2520
3.656	2487
3.664	2457
3.672	2428
3.68	2398
3.688	2374
3.696	2356
3.704	2341
3.712	2328
3.72	2315
3.728	2304
3.736	2293
3.744	2282
3.752	2270
3.76	2258
3.768	2249
3.776	2245
3.784	2243
3.792	2242
3.8	2241
3.808	2241
3.816	2241
3.824	2238
3.832	2230
3.84	2220
3.848	2212
3.856	2208
3.864	2206
3.872	2205
3.88	2208
3.888	2212
3.896	2214
3.904	2215
3.912	2216
3.92	2216
3.928	2213
3.936	2209
3.944	2207
3.952	2206
3.96	2205
3.968	2205
3.976	2205
3.984	2205
3.992	2205
4	2205
4.008	2205
4.016	2205
4.024	2205
4.032	2205
4.04	2205
4.048	2205
4.056	2208
4.064	2212
4.072	2214
4.08	2215
4.088	2213
4.096	2209
4.104	2207
4.112	2206
4.12	2205
4.128	2208
4.136	2212
4.144	2217
4.152	2226
4.16	2233
4.168	2237
4.176	2239
4.184	2240
4.192	2240
4.2	2240
4.208	2240
4.216	2240
4.224	2240
4.232	2240
4.24	2240
4.248	2240
4.256	2240
4.264	2243
4.272	2251
4.28	2266
4.288	2290
4.296	2323
4.304	2363
4.312	2409
4.32	2464
4.328	2523
4.336	2585
4.344	2648
4.352	2711
4.36	2778
4.368	2843
4.376	2902
4.384	2955
4.392	3002
4.4	3039
4.408	3070
4.416	3094
4.424	3106
4.432	3106
4.44	3097
4.448	3079
4.456	3053
4.464	3019
4.472	2982
4.48	2943
4.488	2903
4.496	2863
4.504	2822.99999999999
4.512	2654.99999999998
4.52	2425.99999999998
4.528	2296.99999999999
4.536	2217.99999999999
4.544	2167
4.552	2134
4.56	2109
4.568	2091
4.576	2078
4.584	2065
4.592	2053
4.6	2043
4.608	2034
4.616	2023
4.624	2012
4.632	1999
4.64	1984
4.648	1968
4.656	1950
4.664	1931
4.672	1912
4.68	1894
4.688	1879
4.696	1866
4.704	1854
4.712	1841
4.72	1827
4.728	1812
4.736	1796
4.744	1782
4.752	1769
4.76	1755
4.768	1740
4.776	1726
4.784	1712
4.792	1698
4.8	1685
4.808	1671
4.816	1654
4.824	1637
4.832	1625
4.84	1615
4.848	1606
4.856	1599
4.864	1594
4.872	1587
4.88	1580
4.888	1572
4.896	1562
4.904	1551
4.912	1542
4.92	1533
4.928	1525
4.936	1516
4.944	1508
4.952	1502
4.96	1495
4.968	1490
4.976	1485
4.984	1481
4.992	1479
5	1476
5.008	1472
5.016	1468
5.024	1462
5.032	1457
5.04	1453
5.048	1449
5.056	1447
5.064	1446
5.072	1445
5.08	1445
5.088	1445
5.096	1445
5.104	1445
5.112	1447
5.12	1452
5.128	1458
5.136	1467
5.144	1480
5.152	1495
5.16	1514
5.168	1537
5.176	1565
5.184	1595
5.192	1624
5.2	1653
5.208	1683
5.216	1712
5.224	1740
5.232	1766
5.24	1789
5.248	1807
5.256	1820
5.264	1831
5.272	1837
5.28	1835
5.288	1830
5.296	1821
5.304	1809
5.312	1795
5.32	1780
5.328	1764
5.336	1750
5.344	1739
5.352	1730
5.36	1721
5.368	1715
5.376	1710
5.384	1702
5.392	1695
5.4	1690
5.408	1685
5.416	1681
5.424	1677
5.432	1675
5.44	1672
5.448	1666
5.456	1659
5.464	1654
5.472	1649
5.48	1643
5.488	1636
5.496	1628
5.504	1622
5.512	1619
5.52	1618
5.528	1617
5.536	1617
5.544	1617
5.552	1617
5.56	1617
5.568	1617
5.576	1617
5.584	1617
5.592	1617
5.6	1617
5.608	1617
5.616	1617
5.624	1617
5.632	1617
5.64	1617
5.648	1617
5.656	1617
5.664	1617
5.672	1617
5.68	1617
5.688	1617
5.696	1617
5.704	1617
5.712	1617
5.72	1617
5.728	1617
5.736	1617
5.744	1617
5.752	1617
5.76	1617
5.768	1617
5.776	1617
5.784	1617
5.792	1617
5.8	1617
5.808	1617
5.816	1617
5.824	1617
5.832	1617
5.84	1617
5.848	1617
5.856	1617
5.864	1615
5.872	1612
5.88	1610
5.888	1611
5.896	1614
5.904	1615
5.912	1616
5.92	1616
5.928	1616
5.936	1616
5.944	1616
5.952	1618
5.96	1623
5.968	1630
5.976	1641
5.984	1659
5.992	1681
6	1709
6.008	1741
6.016	1775
6.024	1813
6.032	1851
6.04	1884
6.048	1914
6.056	1943
6.064	1969
6.072	1991
6.08	2010
6.088	2023
6.096	2030
6.104	2031
6.112	2028
6.12	2020
6.128	2005
6.136	1987
6.144	1970
6.152	1951
6.16	1932
6.168	1912
6.176	1894
6.184	1881
6.192	1869
6.2	1856
6.208	1846
6.216	1839
6.224	1834
6.232	1829
6.24	1825
6.248	1821
6.256	1817
6.264	1815
6.272	1814
6.28	1811
6.288	1808
6.296	1806
6.304	1805
6.312	1803
6.32	1800
6.328	1796
6.336	1790
6.344	1783
6.352	1776
6.36	1768
6.368	1762
6.376	1757
6.384	1751
6.392	1746
6.4	1741
6.408	1737
6.416	1733
6.424	1727
6.432	1720
6.44	1712
6.448	1703
6.456	1694
6.464	1681
6.472	1674
6.48	1668
6.488	1659
6.496	1655
6.504	1651
6.512	1643
6.52	1634
6.528	1625
6.536	1621
6.544	1666.00000000001
6.552	1735.00000000001
6.56	1770
6.568	1787
6.576	1798
6.584	1801
6.592	1802
6.6	1804
6.608	1804
6.616	1804
6.624	1804
6.632	1804
6.64	1804
6.648	1804
6.656	1804
6.664	1804
6.672	1804
6.68	1804
6.688	1804
6.696	1804
6.704	1804
6.712	1804
6.72	1804
6.728	1804
6.736	1804
6.744	1804
6.752	1806
6.76	1814
6.768	1828
6.776	1844
6.784	1866
6.792	1897
6.8	1932
6.808	1973
6.816	2021
6.824	2069
6.832	2117
6.84	2162
6.848	2201
6.856	2236
6.864	2267
6.872	2295
6.88	2319
6.888	2338
6.896	2349
6.904	2355
6.912	2353
6.92	2343
6.928	2329
6.936	2310
6.944	2285
6.952	2258
6.96	2230
6.968	2204
6.976	2181
6.984	2160
6.992	2140
7	2123
7.008	2110
7.016	2098
7.024	2087
7.032	2080
7.04	2076
7.048	2074
7.056	2073
7.064	2071
7.072	2068
7.08	2066
7.088	2062
7.096	2055
7.104	2050
7.112	2044
7.12	2036
7.128	2027
7.136	2020
7.144	2014
7.152	2007
7.16	1999
7.168	1990
7.176	1980
7.184	1970
7.192	1961
7.2	1955
7.208	1949
7.216	1941
7.224	1932
7.232	1920
7.24	1907
7.248	1896
7.256	1885
7.264	1875
7.272	1866
7.28	1856
7.288	1848
7.296	1842
7.304	1834
7.312	1825
7.32	1817
7.328	1811
7.336	1805
7.344	1799
7.352	1796
7.36	1794
7.368	1793
7.376	1793
7.384	1796
7.392	1800
7.4	1802
7.408	1803
7.416	1804
7.424	1804
7.432	1804
7.44	1804
7.448	1804
7.456	1804
7.464	1804
7.472	1804
7.48	1804
7.488	1804
7.496	1804
7.504	1804
7.512	1804
7.52	1804
7.528	1804
7.536	1804
7.544	1804
7.552	1804
7.56	1804
7.568	1804
7.576	1804
7.584	1806
7.592	1814
7.6	1828
7.608	1847
7.616	1873
7.624	1905
7.632	1943
7.64	1989.00000000001
7.648	2036.00000000001
7.656	2078
7.664	2118
7.672	2157
7.68	2194
7.688	2229
7.696	2262
7.704	2290
7.712	2316
7.72	2336
7.728	2348
7.736	2352
7.744	2347
7.752	2335
7.76	2317
7.768	2294
7.776	2267
7.784	2239
7.792	2211
7.8	2185
7.808	2162
7.816	2141
7.824	2124
7.832	2110
7.84	2098
7.848	2087
7.856	2078
7.864	2068
7.872	2060
7.88	2054
7.888	2049
7.896	2047
7.904	2046
7.912	2045
7.92	2045
7.928	2045
7.936	2047
7.944	2050
7.952	2051
7.96	2052
7.968	2050
7.976	2047
7.984	2043
7.992	2036
8	2027
8.008	2020
8.016	2016
8.024	2014
8.032	2013
8.04	2011
8.048	2008
8.056	2006
8.064	2005
8.072	2005
8.08	2005
8.088	2005
8.096	2005
8.104	2007
8.112	2010
8.12	2014
8.128	2019
8.136	2022
8.144	2023
8.152	2024
8.16	2024
8.168	2026
8.176	2029
8.184	2031
8.192	2032
8.2	2035
8.208	2040
8.216	2042
8.224	2043
8.232	2044
8.24	2044
8.248	2044
8.256	2044
8.264	2044
8.272	2044
8.28	2046
8.288	2049
8.296	2054
8.304	2061
8.312	2069
8.32	2078
8.328	2085
8.336	2089
8.344	2091
8.352	2092
8.36	2092
8.368	2094
8.376	2097
8.384	2099
8.392	2103
8.4	2110
8.408	2120
8.416	2135
8.424	2157
8.432	2187
8.44	2224
8.448	2268
8.456	2319
8.464	2374
8.472	2430
8.48	2487
8.488	2542
8.496	2593
8.504	2641
8.512	2685
8.52	2724
8.528	2757
8.536	2786
8.544	2807
8.552	2820
8.56	2826
8.568	2824
8.576	2731
8.584	2591
8.592	2506
8.6	2449
8.608	2407
8.616	2371
8.624	2340
8.632	2310
8.64	2281
8.648	2254
8.656	2227
8.664	2204
8.672	2182
8.68	2161
8.688	2143
8.696	2125
8.704	2109
8.712	2095
8.72	2080
8.728	2066
8.736	2053
8.744	2041
8.752	2031
8.76	2019
8.768	2004
8.776	1988
8.784	1972
8.792	1956
8.8	1940
8.808	1922
8.816	1902
8.824	1885
8.832	1871
8.84	1858
8.848	1847
8.856	1838
8.864	1829
8.872	1821
8.88	1811
8.888	1800
8.896	1789
8.904	1779
8.912	1768
8.92	1756
8.928	1744
8.936	1732
8.944	1720
8.952	1708
8.96	1696
8.968	1684
8.976	1673
8.984	1661
8.992	1649
9	1637
9.008	1625
9.016	1615
9.024	1606
9.032	1599
9.04	1594
9.048	1587
9.056	1582
9.064	1577
9.072	1571
9.08	1564
9.088	1556
9.096	1548
9.104	1540
9.112	1534
9.12	1528
9.128	1522
9.136	1517
9.144	1511
9.152	1504
9.16	1496
9.168	1488
9.176	1480
9.184	1474
9.192	1471
9.2	1470
9.208	1469
9.216	1469
9.224	1471
9.232	1474
9.24	1475
9.248	1476
9.256	1478
9.264	1485
9.272	1497
9.28	1514
9.288	1537
9.296	1565
9.304	1593
9.312	1622
9.32	1653
9.328	1685
9.336	1715
9.344	1745
9.352	1775
9.36	1802
9.368	1823
9.376	1838
9.384	1847
9.392	1850
9.4	1847
9.408	1842
9.416	1833
9.424	1821
9.432	1807
9.44	1791
9.448	1772
9.456	1752
9.464	1732
9.472	1712
9.48	1696
9.488	1681
9.496	1667
9.504	1656
9.512	1646
9.52	1637
9.528	1629
9.536	1621
9.544	1615
9.552	1612
9.56	1610
9.568	1609
9.576	1609
9.584	1609
9.592	1609
9.6	1609
9.608	1609
9.616	1609
9.624	1609
9.632	1607
9.64	1604
9.648	1602
9.656	1601
9.664	1601
9.672	1601
9.68	1601
9.688	1601
9.696	1601
9.704	1601
9.712	1601
9.72	1599
9.728	1596
9.736	1594
9.744	1593
9.752	1593
9.76	1593
9.768	1593
9.776	1593
9.784	1593
9.792	1593
9.8	1593
9.808	1591
9.816	1588
9.824	1586
9.832	1585
9.84	1585
9.848	1585
9.856	1585
9.864	1585
9.872	1585
9.88	1585
9.888	1585
9.896	1585
9.904	1585
9.912	1587
9.92	1590
9.928	1591
9.936	1592
9.944	1594
9.952	1597
9.96	1599
9.968	1602
9.976	1605
9.984	1607
9.992	1608
10	1608
10.008	1608
10.016	1608
10.024	1608
10.032	1608
10.04	1608
10.048	1608
10.056	1608
10.064	1608
10.072	1608
10.08	1610
10.088	1613
10.096	1619
10.104	1630
10.112	1646
10.12	1667.00000000001
10.128	1692
10.136	1720.00000000001
10.144	1751
10.152	1786.00000000001
10.16	1819
10.168	1851.00000000001
10.176	1882
10.184	1907.00000000001
10.192	1930
10.2	1949
10.208	1963
10.216	1974
10.224	1979
10.232	1978
10.24	1973
10.248	1967
10.256	1958
10.264	1945
10.272	1929
10.28	1910
10.288	1891
10.296	1874
10.304	1859
10.312	1848
10.32	1838
10.328	1829
10.336	1821
10.344	1813
10.352	1807
10.36	1802
10.368	1797
10.376	1795
10.384	1794
10.392	1793
10.4	1793
10.408	1791
10.416	1785
10.424	1777
10.432	1769
10.44	1761
10.448	1753
10.456	1747
10.464	1742
10.472	1735
10.48	1728
10.488	1720
10.496	1712
10.504	1702
10.512	1691
10.52	1682
10.528	1672
10.536	1662
10.544	1653
10.552	1645
10.56	1635
10.568	1624
10.576	1616
10.584	1612
10.592	1610
10.6	1609
10.608	1609
10.616	1609
10.624	1639
10.632	1684
10.64	1706
10.648	1717
10.656	1723
10.664	1726
10.672	1727
10.68	1728
10.688	1728
10.696	1728
10.704	1728
10.712	1728
10.72	1728
10.728	1728
10.736	1728
10.744	1728
10.752	1728
10.76	1728
10.768	1728
10.776	1728
10.784	1728
10.792	1728
10.8	1728
10.808	1728
10.816	1728
10.824	1728
10.832	1728
10.84	1728
10.848	1728
10.856	1728
10.864	1728
10.872	1728
10.88	1728
10.888	1728
10.896	1728
10.904	1729
10.912	1731
10.92	1736
10.928	1746
10.936	1760
10.944	1780
10.952	1805
10.96	1835
10.968	1869
10.976	1904
10.984	1940
10.992	1975
11	2008
11.008	2039.00000000001
11.016	2068
11.024	2093.00000000001
11.032	2115
11.04	2134
11.048	2149
11.056	2159
11.064	2164
11.072	2164
11.08	2158
11.088	2147
11.096	2133
11.104	2115
11.112	2094
11.12	2072
11.128	2052
11.136	2034
11.144	2018
11.152	2003
11.16	1988
11.168	1974
11.176	1963
11.184	1956
11.192	1951
11.2	1946
11.208	1941
11.216	1939
11.224	1936
11.232	1932
11.24	1930
11.248	1929
11.256	1929
11.264	1927
11.272	1924
11.28	1922
11.288	1919
11.296	1916
11.304	1912
11.312	1906
11.32	1900
11.328	1894
11.336	1889
11.344	1885
11.352	1879
11.36	1872
11.368	1864
11.376	1856
11.384	1848
11.392	1841
11.4	1835
11.408	1828
11.416	1820
11.424	1812
11.432	1802
11.44	1792
11.448	1784
11.456	1776
11.464	1768
11.472	1760
11.48	1752
11.488	1744
11.496	1737
11.504	1733
11.512	1731
11.52	1730
11.528	1729
11.536	1729
11.544	1727
11.552	1724
11.56	1722
11.568	1721
11.576	1721
11.584	1721
11.592	1721
11.6	1723
11.608	1726
11.616	1727
11.624	1728
11.632	1728
11.64	1728
11.648	1728
11.656	1728
11.664	1728
11.672	1728
11.68	1728
11.688	1728
11.696	1728
11.704	1729
11.712	1731
11.72	1732
11.728	1732
11.736	1734
11.744	1739
11.752	1748
11.76	1760
11.768	1775
11.776	1796
11.784	1823
11.792	1855
11.8	1891
11.808	1930
11.816	1968
11.824	2004
11.832	2039
11.84	2073
11.848	2103
11.856	2130
11.864	2152
11.872	2168
11.88	2178
11.888	2181
11.896	2181
11.904	2178
11.912	2169
11.92	2155
11.928	2137
11.936	2117
11.944	2095
11.952	2073
11.96	2051
11.968	2031
11.976	2012
11.984	1992
11.992	1974
12	1960
12.008	1948
12.016	1936
12.024	1926
12.032	1919
12.04	1914
12.048	1909
12.056	1907
12.064	1906
12.072	1905
12.08	1905
12.088	1905
12.096	1903
12.104	1899
12.112	1894
12.12	1887
12.128	1882
12.136	1877
12.144	1871
12.152	1866
12.16	1863
12.168	1860
12.176	1856
12.184	1854
12.192	1851
12.2	1846
12.208	1841
12.216	1838
12.224	1835
12.232	1832
12.24	1826
12.248	1821
12.256	1819
12.264	1816
12.272	1812
12.28	1810
12.288	1809
12.296	1809
12.304	1807
12.312	1804
12.32	1802
12.328	1799
12.336	1796
12.344	1794
12.352	1793
12.36	1793
12.368	1793
12.376	1793
12.384	1793
12.392	1793
12.4	1793
12.408	1795
12.416	1800
12.424	1804
12.432	1808
12.44	1814
12.448	1819
12.456	1824
12.464	1828
12.472	1830
12.48	1831
12.488	1832
12.496	1832
12.504	1833
12.512	1837
12.52	1843
12.528	1850
12.536	1857
12.544	1867
12.552	1878
12.56	1888
12.568	1900
12.576	1916
12.584	1935
12.592	1956
12.6	1981
12.608	2014
12.616	2053
12.624	2099
12.632	2148
12.64	2197
12.648	2246
12.656	2292
12.664	2335
12.672	2398
12.68	2466
12.688	2510
12.696	2539
12.704	2559
12.712	2572
12.72	2575
12.728	2572
12.736	2561
12.744	2544
12.752	2525
12.76	2503
12.768	2477
12.776	2450
12.784	2421
12.792	2389
12.8	2356
12.808	2327
12.816	2303
12.824	2281
12.832	2260
12.84	2242
12.848	2231
12.856	2223
12.864	2214
12.872	2202
12.88	2191
12.888	2184
12.896	2175
12.904	2166
12.912	2156
12.92	2148
12.928	2142
12.936	2134
12.944	2122
12.952	2109
12.96	2096
12.968	2079
12.976	2064
12.984	2049
12.992	2032
13	2013
13.008	1996
13.016	1982
13.024	1968
13.032	1953
13.04	1939
13.048	1928
13.056	1919
13.064	1910
13.072	1898
13.08	1884
13.088	1872
13.096	1861
13.104	1853
13.112	1847
13.12	1839
13.128	1832
13.136	1826
13.144	1818
13.152	1811
13.16	1806
13.168	1799
13.176	1791
13.184	1782
13.192	1772
13.2	1762
13.208	1752
13.216	1742
13.224	1735
13.232	1729
13.24	1721
13.248	1712
13.256	1702
13.264	1690
13.272	1677
13.28	1664
13.288	1649
13.296	1634
13.304	1619
13.312	1608
13.32	1600
13.328	1593
13.336	1587
13.344	1582
13.352	1577
13.36	1572
13.368	1566
13.376	1563
13.384	1562
13.392	1561
13.4	1561
13.408	1564
13.416	1573
13.424	1587
13.432	1601
13.44	1618
13.448	1638
13.456	1663
13.464	1693
13.472	1725
13.48	1761
13.488	1801
13.496	1843
13.504	1879
13.512	1907
13.52	1931
13.528	1948
13.536	1956
13.544	1960
13.552	1959
13.56	1951
13.568	1938
13.576	1922
13.584	1904
13.592	1882
13.6	1856
13.608	1829
13.616	1801
13.624	1774
13.632	1750
13.64	1731
13.648	1715
13.656	1699
13.664	1684
13.672	1669
13.68	1654
13.688	1639
13.696	1627
13.704	1616
13.712	1608
13.72	1604
13.728	1602
13.736	1601
13.744	1601
13.752	1601
13.76	1599
13.768	1596
13.776	1594
13.784	1590
13.792	1585
13.8	1583
13.808	1582
13.816	1579
13.824	1576
13.832	1574
13.84	1573
13.848	1573
13.856	1573
13.864	1573
13.872	1573
13.88	1573
13.888	1573
13.896	1573
13.904	1573
13.912	1573
13.92	1573
13.928	1573
13.936	1573
13.944	1573
13.952	1573
13.96	1573
13.968	1573
13.976	1573
13.984	1573
13.992	1573
14	1573
14.008	1573
14.016	1575
14.024	1578
14.032	1579
14.04	1578
14.048	1575
14.056	1574
14.064	1573
14.072	1575
14.08	1578
14.088	1582
14.096	1589
14.104	1595
14.112	1598
14.12	1601
14.128	1603
14.136	1602
14.144	1601
14.152	1601
14.16	1601
14.168	1601
14.176	1603
14.184	1606
14.192	1607
14.2	1608
14.208	1608
14.216	1608
14.224	1611
14.232	1616
14.24	1618
14.248	1621
14.256	1628
14.264	1636
14.272	1647
14.28	1665
14.288	1689
14.296	1719.00000000001
14.304	1753
14.312	1789.00000000001
14.32	1827
14.328	1864.00000000001
14.336	1897
14.344	1928
14.352	1955
14.36	1977
14.368	1993
14.376	2003
14.384	2006
14.392	2002
14.4	1992
14.408	1977
14.416	1960
14.424	1942
14.432	1926
14.44	1910
14.448	1892
14.456	1876
14.464	1861
14.472	1846
14.48	1833
14.488	1822
14.496	1811
14.504	1802
14.512	1795
14.52	1792
14.528	1790
14.536	1789
14.544	1789
14.552	1789
14.56	1786
14.568	1781
14.576	1777
14.584	1773
14.592	1768
14.6	1760
14.608	1754
14.616	1751
14.624	1747
14.632	1740
14.64	1734
14.648	1728
14.656	1720
14.664	1711
14.672	1702
14.68	1692
14.688	1682
14.696	1675
14.704	1670
14.712	1662
14.72	1662
14.728	1667
14.736	1668
14.744	1666
14.752	1661
14.76	1657
14.768	1653
14.776	1649
14.784	1645
14.792	1641
14.8	1639
14.808	1638
14.816	1637
14.824	1637
14.832	1637
14.84	1637
14.848	1637
14.856	1637
14.864	1637
14.872	1637
14.88	1639
14.888	1642
14.896	1643
14.904	1644
14.912	1644
14.92	1644
14.928	1644
14.936	1644
14.944	1644
14.952	1644
14.96	1644
14.968	1644
14.976	1644
14.984	1644
14.992	1644
15	1644
15.008	1644
15.016	1644
15.024	1646
15.032	1649
15.04	1651
15.048	1654
15.056	1657
15.064	1661
15.072	1667
15.08	1675
15.088	1686
15.096	1699
15.104	1719.00000000001
15.112	1746
15.12	1778.00000000001
15.128	1816
15.136	1855.00000000001
15.144	1894
15.152	1932.00000000001
15.16	1966
15.168	1998.00000000001
15.176	2029
15.184	2056.00000000001
15.192	2078
15.2	2095
15.208	2108
15.216	2116
15.224	2118
15.232	2115
15.24	2108
15.248	2093
15.256	2073
15.264	2053
15.272	2032
15.28	2007.99999999999
15.288	1985
15.296	1963
15.304	1942
15.312	1922
15.32	1905
15.328	1893
15.336	1883
15.344	1876
15.352	1870
15.36	1865
15.368	1863
15.376	1862
15.384	1861
15.392	1858
15.4	1853
15.408	1851
15.416	1848
15.424	1844
15.432	1840
15.44	1834
15.448	1827
15.456	1820
15.464	1812
15.472	1803
15.48	1794
15.488	1785
15.496	1779
15.504	1774
15.512	1767
15.52	1760
15.528	1754
15.536	1748
15.544	1740
15.552	1732
15.56	1724
15.568	1718
15.576	1713
15.584	1707
15.592	1700
15.6	1691
15.608	1682
15.616	1673
15.624	1665
15.632	1657
15.64	1651
15.648	1648
15.656	1646
15.664	1645
15.672	1645
15.68	1645
15.688	1645
15.696	1645
15.704	1645
15.712	1645
15.72	1645
15.728	1645
15.736	1645
15.744	1645
15.752	1645
15.76	1645
15.768	1645
15.776	1645
15.784	1645
15.792	1645
15.8	1645
15.808	1645
15.816	1645
15.824	1645
15.832	1645
15.84	1645
15.848	1645
15.856	1645
15.864	1645
15.872	1645
15.88	1645
15.888	1645
15.896	1645
15.904	1647
15.912	1654
15.92	1666
15.928	1685
15.936	1712
15.944	1747
15.952	1788
15.96	1834
15.968	1883
15.976	1929
15.984	1974
15.992	2015
16	2053
16.008	2090
16.016	2121.00000000001
16.024	2145
16.032	2161
16.04	2169
16.048	2173
16.056	2173
16.064	2169
16.072	2161
16.08	2147.99999999999
16.088	2130
16.096	2111
16.104	2091
16.112	2065.99999999999
16.12	2038
16.128	2011
16.136	1985
16.144	1958.99999999999
16.152	1938
16.16	1922
16.168	1909
16.176	1899
16.184	1892
16.192	1886
16.2	1879
16.208	1872
16.216	1861
16.224	1849
16.232	1839
16.24	1830
16.248	1821
16.256	1813
16.264	1804
16.272	1794
16.28	1787
16.288	1782
16.296	1775
16.304	1768
16.312	1760
16.32	1749
16.328	1737
16.336	1724.99999999999
16.344	1713
16.352	1703
16.36	1693
16.368	1683
16.376	1676
16.384	1670
16.392	1665
16.4	1661
16.408	1657
16.416	1653
16.424	1649
16.432	1645
16.44	1641
16.448	1639
16.456	1636
16.464	1632
16.472	1632
16.48	1634
16.488	1637
16.496	1641
16.504	1643
16.512	1644
16.52	1644
16.528	1644
16.536	1644
16.544	1644
16.552	1644
16.56	1644
16.568	1644
16.576	1644
16.584	1644
16.592	1644
16.6	1646
16.608	1649
16.616	1653
16.624	1657
16.632	1659
16.64	1660
16.648	1660
16.656	1660
16.664	1660
16.672	1660
16.68	1661
16.688	1667
16.696	1675
16.704	1686
16.712	1699
16.72	1719
16.728	1746
16.736	1778
16.744	1818
16.752	1966
16.76	2079
16.768	2181
16.776	2326
16.784	2415
16.792	2499
16.8	2579
16.808	2690
16.816	2759
16.824	2822
16.832	2892
16.84	2912
16.848	2922
16.856	2920
16.864	2905
16.872	2884
16.88	2855
16.888	2820
16.896	2781
16.904	2741
16.912	2697
16.92	2654
16.928	2614
16.936	2573
16.944	2539
16.952	2515
16.96	2493
16.968	2471
16.976	2449
16.984	2428
16.992	2407
17	2386
17.008	2364
17.016	2342.99999999999
17.024	2326
17.032	2306
17.04	2286
17.048	2268.99999999999
17.056	2250
17.064	2230
17.072	2213
17.08	2193.99999999999
17.088	2174
17.096	2161
17.104	2151
17.112	2138.99999999999
17.12	2126
17.128	2112
17.136	2098
17.144	2083.99999999999
17.152	2070
17.16	2059
17.168	2054
17.176	2051
17.184	2050
17.192	2049
17.2	2049
17.208	2049
17.216	2049
17.224	2049
17.232	2046
17.24	2041
17.248	2035
17.256	2025
17.264	2017
17.272	2009
17.28	2001
17.288	1994
17.296	1987
17.304	1984
17.312	1978
17.32	1971
17.328	1965
17.336	1954.99999999999
17.344	1939
17.352	1921
17.36	1905
17.368	1893
17.376	1884
17.384	1876
17.392	1872
17.4	1866
17.408	1859
17.416	1856
17.424	1854
17.432	1850
17.44	1841
17.448	1830
17.456	1817
17.464	1804
17.472	1794
17.48	1785
17.488	1774
17.496	1765
17.504	1757
17.512	1749
17.52	1745
17.528	1743
17.536	1746
17.544	1754
17.552	1768
17.56	1789
17.568	1821
17.576	1862
17.584	1907
17.592	1961
17.6	2019
17.608	2076
17.616	2132
17.624	2185
17.632	2237
17.64	2284
17.648	2321
17.656	2354
17.664	2377
17.672	2389
17.68	2391
17.688	2381
17.696	2359
17.704	2327
17.712	2290
17.72	2247
17.728	2198
17.736	2145
17.744	2094
17.752	2047
17.76	2007
17.768	1973
17.776	1942
17.784	1912
17.792	1886
17.8	1862
17.808	1840
17.816	1819
17.824	1798
17.832	1776
17.84	1755
17.848	1738
17.856	1722
17.864	1707
17.872	1693
17.88	1679
17.888	1661
17.896	1645
17.904	1634
17.912	1625
17.92	1617
17.928	1609
17.936	1602
17.944	1591
17.952	1575
17.96	1557
17.968	1541
17.976	1529
17.984	1520
17.992	1508
18	1498
18.008	1490
18.016	1478.99999999999
18.024	1467
18.032	1454
18.04	1440
18.048	1430
18.056	1421
18.064	1413
18.072	1406
18.08	1395
18.088	1386
18.096	1378
18.104	1367
18.112	1358
18.12	1353
18.128	1351
18.136	1350
18.144	1349
18.152	1349
18.16	1349
18.168	1346
18.176	1341
18.184	1339
18.192	1341
18.2	1345
18.208	1351
18.216	1358
18.224	1361
18.232	1363
18.24	1364
18.248	1364
18.256	1364
18.264	1364
18.272	1364
18.28	1364
18.288	1364
18.296	1364
18.304	1364
18.312	1364
18.32	1367
18.328	1372
18.336	1378
18.344	1388
18.352	1396
18.36	1404
18.368	1415.00000000001
18.376	1428
18.384	1445
18.392	1468
18.4	1496.00000000001
18.408	1531
18.416	1570
18.424	1610
18.432	1655.00000000002
18.44	1706
18.448	1755
18.456	1804
18.464	1856
18.472	1907
18.48	1954
18.488	1994
18.496	2025
18.504	2045
18.512	2055
18.52	2060
18.528	2062
18.536	2059
18.544	2051
18.552	2040
18.56	2023
18.568	2001
18.576	1976
18.584	1949
18.592	1926
18.6	1907
18.608	1891
18.616	1876
18.624	1861
18.632	1847
18.64	1836
18.648	1827
18.656	1820
18.664	1816
18.672	1810
18.68	1803
18.688	1800
18.696	1795
18.704	1790
18.712	1783
18.72	1773
18.728	1765
18.736	1757
18.744	1746
18.752	1737
18.76	1729
18.768	1718
18.776	1705
18.784	1723
18.792	1758
18.8	1771
18.808	1774
18.816	1773
18.824	1771
18.832	1768
18.84	1766
18.848	1765
18.856	1765
18.864	1765
18.872	1765
18.88	1765
18.888	1765
18.896	1765
18.904	1765
18.912	1765
18.92	1765
18.928	1764
18.936	1762
18.944	1761
18.952	1759
18.96	1756
18.968	1754
18.976	1753
18.984	1753
18.992	1753
19	1755
19.008	1758
19.016	1759
19.024	1760
19.032	1760
19.04	1760
19.048	1760
19.056	1760
19.064	1761
19.072	1763
19.08	1764
19.088	1764
19.096	1764
19.104	1763
19.112	1762
19.12	1761
19.128	1761
19.136	1762
19.144	1763
19.152	1764
19.16	1764
19.168	1764
19.176	1764
19.184	1764
19.192	1764
19.2	1766
19.208	1771
19.216	1780
19.224	1794
19.232	1813
19.24	1839.00000000001
19.248	1870
19.256	1902
19.264	1937
19.272	1973.00000000002
19.28	2007
19.288	2040
19.296	2072
19.304	2102.00000000001
19.312	2128
19.32	2150
19.328	2169
19.336	2183
19.344	2190
19.352	2191
19.36	2188
19.368	2180
19.376	2167
19.384	2152
19.392	2134
19.4	2112.99999999999
19.408	2091
19.416	2070
19.424	2049
19.432	2030.99999999999
19.44	2020
19.448	2012
19.456	2006
19.464	2001
19.472	1995
19.48	1990
19.488	1985
19.496	1979
19.504	1974
19.512	1971
19.52	1968
19.528	1964
19.536	1962
19.544	1959
19.552	1956
19.56	1952
19.568	1946
19.576	1940
19.584	1936
19.592	1932
19.6	1926
19.608	1921
19.616	1917
19.624	1911
19.632	1904
19.64	1896
19.648	1890
19.656	1885
19.664	1879
19.672	1874
19.68	1869
19.688	1863
19.696	1856
19.704	1848
19.712	1840
19.72	1834
19.728	1829
19.736	1823
19.744	1816
19.752	1810
19.76	1805
19.768	1799
19.776	1792
19.784	1784
19.792	1776
19.8	1770
19.808	1767
19.816	1766
19.824	1765
19.832	1765
19.84	1765
19.848	1765
19.856	1765
19.864	1765
19.872	1765
19.88	1765
19.888	1765
19.896	1765
19.904	1765
19.912	1765
19.92	1765
19.928	1765
19.936	1765
19.944	1764
19.952	1762
19.96	1761
19.968	1761
19.976	1762
19.984	1763
19.992	1764
20	1764
20.008	1766
20.016	1769
20.024	1771
20.032	1774
20.04	1779
20.048	1788
20.056	1802
20.064	1823
20.072	1850
20.08	1882.00000000002
20.088	1919
20.096	1958
20.104	1997
20.112	2037.00000000002
20.12	2075
20.128	2109
20.136	2139
20.144	2166.00000000001
20.152	2191
20.16	2212
20.168	2226
20.176	2237
20.184	2243
20.192	2242
20.2	2235
20.208	2223.99999999999
20.216	2208
20.224	2188
20.232	2167
20.24	2145.99999999999
20.248	2123
20.256	2102
20.264	2083
20.272	2065.99999999999
20.28	2051
20.288	2038
20.296	2025
20.304	2015
20.312	2006
20.32	1999
20.328	1994
20.336	1987
20.344	1980
20.352	1972
20.36	1964
20.368	1958
20.376	1953
20.384	1949
20.392	1945
20.4	1941
20.408	1938
20.416	1933
20.424	1927
20.432	1920
20.44	1912
20.448	1902
20.456	1889
20.464	1874.99999999999
20.472	1862
20.48	1849
20.488	1837
20.496	1827
20.504	1820
20.512	1814
20.52	1807
20.528	1800
20.536	1792
20.544	1782
20.552	1773
20.56	1768
20.568	1764
20.576	1760
20.584	1756
20.592	1754
20.6	1753
20.608	1755
20.616	1758
20.624	1760
20.632	1762
20.64	1763
20.648	1764
20.656	1764
20.664	1764
20.672	1764
20.68	1764
20.688	1764
20.696	1764
20.704	1764
20.712	1764
20.72	1764
20.728	1764
20.736	1764
20.744	1764
20.752	1764
20.76	1764
20.768	1764
20.776	1764
20.784	1764
20.792	1764
20.8	1764
20.808	1764
20.816	1764
20.824	1764
20.832	1730
20.84	1679
20.848	1658
20.856	1654
20.864	1662
20.872	1684
20.88	1720
20.888	1769
20.896	1829
20.904	1898
20.912	1974
20.92	2054
20.928	2136
20.936	2222
20.944	2310
20.952	2393
20.96	2470
20.968	2543
20.976	2608
20.984	2661
20.992	2706
21	2738
21.008	2754
21.016	2755
21.024	2745
21.032	2723
21.04	2691
21.048	2653.99999999998
21.056	2614
21.064	2573
21.072	2536
21.08	2502.99999999999
21.088	2473
21.096	2444
21.104	2418
21.112	2397.99999999999
21.12	2378
21.128	2357
21.136	2336
21.144	2314.99999999999
21.152	2295
21.16	2274
21.168	2256
21.176	2243.99999999999
21.184	2234
21.192	2222
21.2	2213
21.208	2205
21.216	2194
21.224	2181
21.232	2168
21.24	2150.99999999999
21.248	2132
21.256	2111
21.264	2091
21.272	2073.99999999999
21.28	2061
21.288	2055
21.296	2052
21.304	2050
21.312	2049
21.32	2049
21.328	2049
21.336	2049
21.344	2046
21.352	2041
21.36	2035
21.368	2028
21.376	2024
21.384	2022
21.392	2025
21.4	2034
21.408	2041
21.416	2049
21.424	2057
21.432	2061
21.44	2063
21.448	2064
21.456	2064
21.464	2064
21.472	2064
21.48	2064
21.488	2064
21.496	2064
21.504	2064
21.512	2064
21.52	2064
21.528	2064
21.536	2060
21.544	2054
21.552	2051
21.56	2050
21.568	2053
21.576	2059
21.584	2062
21.592	2063
21.6	2064
21.608	2064
21.616	2060
21.624	2054
21.632	2048
21.64	2042
21.648	2039
21.656	2034
21.664	2031
21.672	2034
21.68	2035
21.688	2043
21.696	2054
21.704	2066
21.712	2086
21.72	2113
21.728	2148
21.736	2193
21.744	2251
21.752	2315
21.76	2382
21.768	2450
21.776	2515
21.784	2573
21.792	2623
21.8	2665
21.808	2700
21.816	2724
21.824	2736
21.832	2742
21.84	2738
21.848	2722
21.856	2697
21.864	2661
21.872	2615
21.88	2564
21.888	2510
21.896	2455
21.904	2400
21.912	2344
21.92	2288
21.928	2235
21.936	2188
21.944	2143
21.952	2100
21.96	2061
21.968	2028
21.976	1997
21.984	1968
21.992	1939
22	1914
22.008	1890
22.016	1867.99999999999
22.024	1847
22.032	1826
22.04	1808
22.048	1788.99999999999
22.056	1769
22.064	1748
22.072	1727
22.08	1706.99999999999
22.088	1683
22.096	1660
22.104	1641
22.112	1624.99999999999
22.12	1610
22.128	1599
22.136	1590
22.144	1581
22.152	1574
22.16	1563
22.168	1551
22.176	1537.99999999999
22.184	1524
22.192	1514
22.2	1505
22.208	1494
22.216	1485
22.224	1477
22.232	1466
22.24	1452.99999999999
22.248	1440
22.256	1426
22.264	1412
22.272	1397.99999999999
22.28	1387
22.288	1379
22.296	1372
22.304	1364
22.312	1356
22.32	1349
22.328	1343
22.336	1336
22.344	1328
22.352	1321
22.36	1315
22.368	1308
22.376	1300
22.384	1296
22.392	1294
22.4	1293
22.408	1293
22.416	1293
22.424	1293
22.432	1293
22.44	1293
22.448	1293
22.456	1293
22.464	1293
22.472	1297
22.48	1303
22.488	1309
22.496	1319
22.504	1331
22.512	1340
22.52	1348
22.528	1359
22.536	1375
22.544	1394
22.552	1414
22.56	1441
22.568	1476
22.576	1518
22.584	1563
22.592	1607
22.6	1650
22.608	1692
22.616	1734
22.624	1772
22.632	1809
22.64	1849
22.648	1886
22.656	1918
22.664	1948
22.672	1970
22.68	1981
22.688	1984
22.696	1978
22.704	1964
22.712	1940
22.72	1911
22.728	1886
22.736	1862
22.744	1840
22.752	1819
22.76	1798
22.768	1780
22.776	1764
22.784	1749
22.792	1735
22.8	1721
22.808	1711
22.816	1702
22.824	1693
22.832	1686
22.84	1679
22.848	1672
22.856	1664
22.864	1657
22.872	1651
22.88	1688
22.888	1746
22.896	1775
22.904	1790
22.912	1797
22.92	1801
22.928	1803
22.936	1804
22.944	1804
22.952	1804
22.96	1804
22.968	1804
22.976	1804
22.984	1804
22.992	1804
23	1804
23.008	1804
23.016	1804
23.024	1804
23.032	1804
23.04	1804
23.048	1804
23.056	1802
23.064	1799
23.072	1798
23.08	1799
23.088	1802
23.096	1803
23.104	1804
23.112	1804
23.12	1804
23.128	1804
23.136	1804
23.144	1804
23.152	1804
23.16	1804
23.168	1804
23.176	1804
23.184	1804
23.192	1804
23.2	1804
23.208	1804
23.216	1804
23.224	1804
23.232	1804
23.24	1804
23.248	1804
23.256	1804
23.264	1804
23.272	1804
23.28	1804
23.288	1804
23.296	1804
23.304	1804
23.312	1804
23.32	1804
23.328	1804
23.336	1804
23.344	1804
23.352	1804
23.36	1804
23.368	1804
23.376	1808
23.384	1818
23.392	1831
23.4	1851.00000000001
23.408	1880
23.416	1915
23.424	1954
23.432	1994.00000000002
23.44	2033
23.448	2070
23.456	2103
23.464	2132.00000000001
23.472	2159
23.48	2184
23.488	2204
23.496	2220.00000000001
23.504	2232
23.512	2240
23.52	2242
23.528	2237
23.536	2227
23.544	2212
23.552	2191
23.56	2168
23.568	2146
23.576	2126
23.584	2105
23.592	2087
23.6	2074
23.608	2065
23.616	2059
23.624	2052
23.632	2044
23.64	2035
23.648	2026
23.656	2019
23.664	2014
23.672	2009
23.68	2005
23.688	2001
23.696	1997
23.704	1993
23.712	1989
23.72	1983
23.728	1976
23.736	1968
23.744	1959
23.752	1950
23.76	1941
23.768	1933
23.776	1925
23.784	1919
23.792	1914
23.8	1907
23.808	1900
23.816	1892
23.824	1883
23.832	1874
23.84	1865
23.848	1857
23.856	1849
23.864	1841
23.872	1833
23.88	1825
23.888	1819
23.896	1814
23.904	1809
23.912	1807
23.92	1806
23.928	1805
23.936	1805
23.944	1805
23.952	1803
23.96	1802
23.968	1803
23.976	1804
23.984	1804
23.992	1804
24	1804
24.008	1804
24.016	1804
24.024	1804
24.032	1804
24.04	1804
24.048	1804
24.056	1804
24.064	1804
24.072	1804
24.08	1804
24.088	1804
24.096	1804
24.104	1804
24.112	1804
24.12	1804
24.128	1804
24.136	1804
24.144	1804
24.152	1804
24.16	1804
24.168	1804
24.176	1804
24.184	1804
24.192	1806
24.2	1811
24.208	1820
24.216	1834
24.224	1856
24.232	1884
24.24	1917.00000000002
24.248	1955
24.256	1997
24.264	2042
24.272	2083.00000000002
24.28	2123
24.288	2162
24.296	2195
24.304	2225.00000000001
24.312	2253
24.32	2277
24.328	2295
24.336	2309.00000000001
24.344	2319
24.352	2321
24.36	2315
24.368	2301.99999999999
24.376	2285
24.384	2266
24.392	2243
24.4	2219.99999999999
24.408	2197
24.416	2177
24.424	2159
24.432	2141.99999999999
24.44	2124
24.448	2106
24.456	2089
24.464	2074.99999999999
24.472	2064
24.48	2054
24.488	2047
24.496	2042
24.504	2037
24.512	2035
24.52	2034
24.528	2030
24.536	2023
24.544	2016
24.552	2008
24.56	1998
24.568	1987
24.576	1978
24.584	1969
24.592	1960
24.6	1950
24.608	1941
24.616	1933
24.624	1923
24.632	1912
24.64	1900
24.648	1887
24.656	1876
24.664	1866
24.672	1855
24.68	1844
24.688	1834
24.696	1823
24.704	1814
24.712	1807
24.72	1802
24.728	1797
24.736	1793
24.744	1791
24.752	1790
24.76	1789
24.768	1789
24.776	1789
24.784	1789
24.792	1786
24.8	1779
24.808	1772
24.816	1764
24.824	1756
24.832	1750
24.84	1747
24.848	1746
24.856	1747
24.864	1752
24.872	1758
24.88	1763
24.888	1766
24.896	1767
24.904	1768
24.912	1768
24.92	1768
24.928	1736
24.936	1688
24.944	1664
24.952	1655
24.96	1657
24.968	1665
24.976	1676
24.984	1684
24.992	1688
25	1690
25.008	1691
25.016	1695
25.024	1703
25.032	1716
25.04	1735
25.048	1765.00000000002
25.056	1809
25.064	1863
25.072	1926
25.08	1993.00000000003
25.088	2059
25.096	2125
25.104	2194
25.112	2263.00000000003
25.12	2331
25.128	2395
25.136	2449
25.144	2495.00000000002
25.152	2531
25.16	2555
25.168	2570
25.176	2574
25.184	2570
25.192	2559
25.2	2541
25.208	2518.99999999999
25.216	2495
25.224	2470
25.232	2441
25.24	2409.99999999999
25.248	2381
25.256	2354
25.264	2330
25.272	2311.99999999999
25.28	2297
25.288	2283
25.296	2272
25.304	2263
25.312	2256
25.32	2249
25.328	2243
25.336	2237
25.344	2224
25.352	2207
25.36	2189
25.368	2169.99999999999
25.376	2154
25.384	2143
25.392	2135
25.4	2128
25.408	2120
25.416	2109
25.424	2101
25.432	2097
25.44	2095
25.448	2091
25.456	2086
25.464	2080
25.472	2074
25.48	2067
25.488	2057
25.496	2049
25.504	2045
25.512	2043
25.52	2042
25.528	2041
25.536	2041
25.544	2041
25.552	2041
25.56	2041
25.568	2041
25.576	2038
25.584	2033
25.592	2028
25.6	2022
25.608	2019
25.616	2018
25.624	2017
25.632	2013
25.64	2007
25.648	2004
25.656	1999
25.664	1994
25.672	1991
25.68	1993
25.688	1997
25.696	2003
25.704	2013
25.712	2024
25.72	2035
25.728	2048
25.736	2058
25.744	2066
25.752	2073
25.76	2077
25.768	2079
25.776	2080
25.784	2083
25.792	2088
25.8	2090
25.808	2091
25.816	2092
25.824	2092
25.832	2092
25.84	2092
25.848	2095
25.856	2104
25.864	2115
25.872	2134
25.88	2162
25.888	2198
25.896	2246
25.904	2306
25.912	2375
25.92	2446
25.928	2516
25.936	2583
25.944	2646
25.952	2706
25.96	2759
25.968	2803
25.976	2838
25.984	2864
25.992	2880
26	2888
26.008	2886
26.016	2871.99999999999
26.024	2852
26.032	2823
26.04	2783
26.048	2736.99999999998
26.056	2688
26.064	2634
26.072	2578
26.08	2523.99999999998
26.088	2474
26.096	2429
26.104	2391
26.112	2355.99999999998
26.12	2318
26.128	2280
26.136	2245
26.144	2210.99999999998
26.152	2175
26.16	2141
26.168	2111
26.176	2085.99999999999
26.184	2063
26.192	2043
26.2	2023
26.208	1999.99999999999
26.216	1978
26.224	1957
26.232	1938
26.24	1917.99999999999
26.248	1898
26.256	1878
26.264	1855
26.272	1830.99999999999
26.28	1806
26.288	1780
26.296	1754
26.304	1728.99999999999
26.312	1708
26.32	1690
26.328	1674
26.336	1659.99999999999
26.344	1647
26.352	1638
26.36	1629
26.368	1617.99999999999
26.376	1606
26.384	1594
26.392	1581
26.4	1567.99999999999
26.408	1555
26.416	1543
26.424	1530
26.432	1519
26.44	1511
26.448	1501
26.456	1490
26.464	1481
26.472	1473
26.48	1459
26.488	1443
26.496	1427.99999999999
26.504	1416
26.512	1407
26.52	1397
26.528	1385.99999999999
26.536	1373
26.544	1363
26.552	1355
26.56	1345
26.568	1337
26.576	1330
26.584	1319
26.592	1310
26.6	1302
26.608	1295
26.616	1292
26.624	1290
26.632	1289
26.64	1289
26.648	1289
26.656	1289
26.664	1289
26.672	1289
26.68	1292
26.688	1296
26.696	1302
26.704	1312
26.712	1326
26.72	1349
26.728	1381
26.736	1417
26.744	1458
26.752	1500
26.76	1547
26.768	1601
26.776	1650
26.784	1696
26.792	1742
26.8	1784
26.808	1821
26.816	1853
26.824	1879
26.832	1899
26.84	1912
26.848	1915
26.856	1910
26.864	1900
26.872	1886
26.88	1866
26.888	1843
26.896	1819
26.904	1794
26.912	1771
26.92	1750
26.928	1730
26.936	1714
26.944	1700
26.952	1696
26.96	1694
26.968	1750
26.976	1787
26.984	1806
26.992	1818
27	1821
27.008	1823
27.016	1824
27.024	1824
27.032	1824
27.04	1824
27.048	1824
27.056	1822
27.064	1819
27.072	1818
27.08	1817
27.088	1817
27.096	1817
27.104	1817
27.112	1817
27.12	1817
27.128	1817
27.136	1817
27.144	1817
27.152	1817
27.16	1817
27.168	1816
27.176	1814
27.184	1813
27.192	1814
27.2	1815
27.208	1816
27.216	1816
27.224	1816
27.232	1816
27.24	1816
27.248	1816
27.256	1815
27.264	1814
27.272	1813
27.28	1813
27.288	1813
27.296	1813
27.304	1813
27.312	1813
27.32	1813
27.328	1811
27.336	1808
27.344	1806
27.352	1805
27.36	1805
27.368	1805
27.376	1807
27.384	1808
27.392	1806
27.4	1805
27.408	1803
27.416	1800
27.424	1798
27.432	1797
27.44	1799
27.448	1802
27.456	1805
27.464	1809
27.472	1812
27.48	1814
27.488	1817
27.496	1823
27.504	1830
27.512	1836
27.52	1844
27.528	1857.00000000001
27.536	1877
27.544	1902
27.552	1928
27.56	1957.00000000001
27.568	1988
27.576	2016
27.584	2041
27.592	2065.00000000001
27.6	2086
27.608	2103
27.616	2119
27.624	2130
27.632	2137
27.64	2141
27.648	2140
27.656	2134
27.664	2123
27.672	2109
27.68	2092
27.688	2074
27.696	2057
27.704	2042
27.712	2029
27.72	2019
27.728	2010
27.736	2002
27.744	1995
27.752	1988
27.76	1980
27.768	1972
27.776	1965
27.784	1959
27.792	1954
27.8	1949
27.808	1945
27.816	1943
27.824	1942
27.832	1939
27.84	1934
27.848	1927
27.856	1921
27.864	1915
27.872	1908
27.88	1898
27.888	1888
27.896	1882
27.904	1877
27.912	1871
27.92	1864
27.928	1858
27.936	1853
27.944	1848
27.952	1842
27.96	1835
27.968	1830
27.976	1827
27.984	1826
27.992	1825
28	1823
28.008	1820
28.016	1818
28.024	1817
28.032	1817
28.04	1817
28.048	1817
28.056	1817
28.064	1817
28.072	1817
28.08	1817
28.088	1817
28.096	1817
28.104	1817
28.112	1817
28.12	1817
28.128	1817
28.136	1817
28.144	1817
28.152	1817
28.16	1819
28.168	1822
28.176	1823
28.184	1824
28.192	1824
28.2	1824
28.208	1824
28.216	1824
28.224	1822
28.232	1819
28.24	1817
28.248	1815
28.256	1814
28.264	1813
28.272	1814
28.28	1815
28.288	1818
28.296	1821
28.304	1823
28.312	1824
28.32	1824
28.328	1826
28.336	1829
28.344	1834
28.352	1843
28.36	1859
28.368	1881.00000000001
28.376	1907
28.384	1937
28.392	1970
28.4	2002.00000000001
28.408	2032
28.416	2060
28.424	2087
28.432	2113.00000000001
28.44	2135
28.448	2155
28.456	2172
28.464	2184
28.472	2192
28.48	2194
28.488	2191
28.496	2185
28.504	2173
28.512	2156
28.52	2136
28.528	2112.99999999999
28.536	2090
28.544	2069
28.552	2053
28.56	2042
28.568	2033
28.576	2025
28.584	2017
28.592	2009
28.6	2002
28.608	1995
28.616	1988
28.624	1980
28.632	1972
28.64	1965
28.648	1959
28.656	1952
28.664	1946
28.672	1941
28.68	1937
28.688	1935
28.696	1932
28.704	1926
28.712	1920
28.72	1914
28.728	1905
28.736	1895
28.744	1887
28.752	1880
28.76	1872
28.768	1864
28.776	1855
28.784	1846
28.792	1837
28.8	1831
28.808	1828
28.816	1826
28.824	1825
28.832	1825
28.84	1825
28.848	1825
28.856	1823
28.864	1820
28.872	1817
28.88	1815
28.888	1812
28.896	1808
28.904	1804
28.912	1800
28.92	1798
28.928	1795
28.936	1792
28.944	1790
28.952	1789
28.96	1787
28.968	1783
28.976	1780
28.984	1776
28.992	1730
29	1665
29.008	1633
29.016	1612.99999999999
29.024	1599
29.032	1592
29.04	1588
29.048	1586
29.056	1582
29.064	1577
29.072	1575
29.08	1570
29.088	1563
29.096	1560
29.104	1562
29.112	1567
29.12	1573
29.128	1583
29.136	1596
29.144	1610.00000000001
29.152	1624
29.16	1638
29.168	1657
29.176	1682.00000000001
29.184	1708
29.192	1743
29.2	1791
29.208	1849.00000000003
29.216	1919
29.224	1999
29.232	2080
29.24	2153.00000000003
29.248	2220
29.256	2279
29.264	2328
29.272	2367.00000000002
29.28	2402
29.288	2434
29.296	2461
29.304	2479.00000000001
29.312	2488
29.32	2484
29.328	2467
29.336	2440.99999999999
29.344	2406
29.352	2365
29.36	2322
29.368	2277.99999999998
29.376	2237
29.384	2206
29.392	2179
29.4	2154.99999999999
29.408	2136
29.416	2118
29.424	2101
29.432	2085.99999999999
29.44	2075
29.448	2070
29.456	2067
29.464	2066
29.472	2065
29.48	2065
29.488	2065
29.496	2061
29.504	2055
29.512	2052
29.52	2050
29.528	2049
29.536	2049
29.544	2049
29.552	2049
29.56	2045
29.568	2039
29.576	2032
29.584	2024
29.592	2017
29.6	2011
29.608	2008
29.616	2006
29.624	2005
29.632	2005
29.64	2001
29.648	1995
29.656	1992
29.664	1990
29.672	1985
29.68	1979
29.688	1976
29.696	1974
29.704	1969
29.712	1963
29.72	1960
29.728	1955
29.736	1950
29.744	1947
29.752	1946
29.76	1945
29.768	1945
29.776	1941
29.784	1935
29.792	1932
29.8	1926
29.808	1919
29.816	1916
29.824	1914
29.832	1913
29.84	1913
29.848	1913
29.856	1913
29.864	1917
29.872	1923
29.88	1926
29.888	1927
29.896	1928
29.904	1924
29.912	1918
29.92	1915
29.928	1914
29.936	1913
29.944	1917
29.952	1927
29.96	1939
29.968	1952
29.976	1970
29.984	1994
29.992	2024
30	2062
30.008	2107
30.016	2163.00000000003
30.024	2233
30.032	2313
30.04	2397
30.048	2487.00000000004
30.056	2577
30.064	2660
30.072	2738
30.08	2810.00000000003
30.088	2873
30.096	2924
30.104	2964
30.112	2999.00000000001
30.12	3028
30.128	3046
30.136	3051
30.144	3046
30.152	3028
30.16	2997
30.168	2960
30.176	2914.99999999998
30.184	2859
30.192	2797
30.2	2736
30.208	2678.99999999998
30.216	2625
30.224	2572
30.232	2523
30.24	2479.99999999998
30.248	2439
30.256	2401
30.264	2363
30.272	2324.99999999998
30.28	2291
30.288	2259
30.296	2228
30.304	2200.99999999999
30.312	2181
30.32	2163
30.328	2147
30.336	2131.99999999999
30.344	2116
30.352	2097
30.36	2073
30.368	2045.99999999999
30.376	2017
30.384	1984
30.392	1949
30.4	1916.99999999999
30.408	1886
30.416	1851
30.424	1815
30.432	1781.99999999999
30.44	1750
30.448	1724
30.456	1704
30.464	1685.99999999999
30.472	1669
30.48	1654
30.488	1639
30.496	1619.99999999999
30.504	1595
30.512	1572
30.52	1549
30.528	1526.99999999999
30.536	1505
30.544	1483
30.552	1464
30.56	1445.99999999999
30.568	1430
30.576	1415
30.584	1396
30.592	1374.99999999999
30.6	1358
30.608	1341
30.616	1325
30.624	1309.99999999999
30.632	1295
30.64	1280
30.648	1268
30.656	1262
30.664	1259
30.672	1258
30.68	1254
30.688	1249
30.696	1250
30.704	1253
30.712	1255
30.72	1256
30.728	1256
30.736	1256
30.744	1256
30.752	1253
30.76	1249
30.768	1247
30.776	1246
30.784	1248
30.792	1252
30.8	1254
30.808	1255
30.816	1256
30.824	1256
30.832	1256
30.84	1260
30.848	1270
30.856	1286
30.864	1309
30.872	1340
30.88	1377
30.888	1422
30.896	1474
30.904	1526
30.912	1578
30.92	1630
30.928	1674
30.936	1707
30.944	1732
30.952	1752
30.96	1766
30.968	1769
30.976	1763
30.984	1752
30.992	1739
31	1726
31.008	1712
31.016	1697.99999999999
31.024	1679
31.032	1659
31.04	1684
31.048	1732.00000000001
31.056	1752
31.064	1759
31.072	1762
31.08	1761
31.088	1757
31.096	1753
31.104	1749
31.112	1743
31.12	1738
31.128	1735
31.136	1732
31.144	1728
31.152	1726
31.16	1724
31.168	1722
31.176	1719
31.184	1714
31.192	1707
31.2	1702
31.208	1697
31.216	1691
31.224	1686
31.232	1682
31.24	1677
31.248	1671
31.256	1666
31.264	1663
31.272	1660
31.28	1656
31.288	1654
31.296	1651
31.304	1646
31.312	1640
31.32	1634
31.328	1627
31.336	1622
31.344	1617
31.352	1613
31.36	1611
31.368	1610
31.376	1609
31.384	1609
31.392	1609
31.4	1609
31.408	1609
31.416	1609
31.424	1609
31.432	1609
31.44	1609
31.448	1609
31.456	1609
31.464	1609
31.472	1609
31.48	1609
31.488	1609
31.496	1609
31.504	1609
31.512	1609
31.52	1609
31.528	1609
31.536	1609
31.544	1609
31.552	1609
31.56	1609
31.568	1609
31.576	1609
31.584	1609
31.592	1609
31.6	1609
31.608	1609
31.616	1609
31.624	1609
31.632	1609
31.64	1609
31.648	1611
31.656	1614
31.664	1617
31.672	1624
31.68	1634
31.688	1649.00000000001
31.696	1670
31.704	1692
31.712	1716
31.72	1743.00000000001
31.728	1773
31.736	1803
31.744	1829
31.752	1853
31.76	1876
31.768	1898
31.776	1916
31.784	1928
31.792	1938
31.8	1945
31.808	1947
31.816	1944
31.824	1939
31.832	1932
31.84	1920
31.848	1905
31.856	1889
31.864	1872
31.872	1856
31.88	1844
31.888	1834
31.896	1825
31.904	1819
31.912	1815
31.92	1812
31.928	1810
31.936	1807
31.944	1804
31.952	1802
31.96	1801
31.968	1801
31.976	1801
31.984	1801
31.992	1801
32	1801
32.008	1799
32.016	1796
32.024	1794
32.032	1793
32.04	1791
32.048	1788
32.056	1784
32.064	1778
32.072	1773
32.08	1770
32.088	1765
32.096	1759
32.104	1754
32.112	1749
32.12	1743
32.128	1736
32.136	1729
32.144	1725
32.152	1721
32.16	1717
32.168	1713
32.176	1709
32.184	1705
32.192	1699
32.2	1692
32.208	1685
32.216	1679
32.224	1671.99999999999
32.232	1664
32.24	1658
32.248	1653
32.256	1647
32.264	1642
32.272	1638
32.28	1633
32.288	1629
32.296	1625
32.304	1619
32.312	1614
32.32	1611
32.328	1610
32.336	1609
32.344	1609
32.352	1609
32.36	1609
32.368	1609
32.376	1609
32.384	1609
32.392	1609
32.4	1609
32.408	1609
32.416	1609
32.424	1609
32.432	1609
32.44	1609
32.448	1609
32.456	1609
32.464	1609
32.472	1611
32.48	1614
32.488	1617
32.496	1623
32.504	1631
32.512	1644
32.52	1661
32.528	1683
32.536	1709
32.544	1738.00000000003
32.552	1770
32.56	1802
32.568	1833
32.576	1864
32.584	1893
32.592	1919
32.6	1942
32.608	1962.00000000002
32.616	1977
32.624	1987
32.632	1992
32.64	1994
32.648	1991
32.656	1985
32.664	1977
32.672	1964.99999999999
32.68	1952
32.688	1938
32.696	1923
32.704	1909
32.712	1895
32.72	1880
32.728	1865
32.736	1852.99999999999
32.744	1845
32.752	1839
32.76	1834
32.768	1831
32.776	1830
32.784	1831
32.792	1834
32.8	1835
32.808	1836
32.816	1836
32.824	1836
32.832	1836
32.84	1836
32.848	1836
32.856	1836
32.864	1836
32.872	1834
32.88	1831
32.888	1828
32.896	1822
32.904	1816
32.912	1812
32.92	1808
32.928	1804
32.936	1802
32.944	1799
32.952	1796
32.96	1792
32.968	1786
32.976	1779
32.984	1774
32.992	1770
33	1767
33.008	1764
33.016	1760
33.024	1756
33.032	1749.99999999999
33.04	1743
33.048	1738
33.056	1733
33.064	1728
33.072	1724
33.08	1720
33.088	1750
33.096	1799.00000000003
33.104	1820
33.112	1822
33.12	1819
33.128	1815
33.136	1810
33.144	1803
33.152	1796
33.16	1787.99999999999
33.168	1776
33.176	1766
33.184	1758
33.192	1747
33.2	1738
33.208	1729
33.216	1721
33.224	1712.99999999999
33.232	1705
33.24	1698
33.248	1687
33.256	1674
33.264	1663
33.272	1658
33.28	1655
33.288	1654
33.296	1653
33.304	1657
33.312	1663
33.32	1670
33.328	1684
33.336	1706
33.344	1736
33.352	1773.00000000004
33.36	1818
33.368	1870
33.376	1930
33.384	1997
33.392	2064
33.4	2131
33.408	2199
33.416	2262.00000000005
33.424	2319
33.432	2371
33.44	2419
33.448	2462
33.456	2494
33.464	2513
33.472	2523
33.48	2525
33.488	2519
33.496	2504
33.504	2481
33.512	2455
33.52	2427
33.528	2398
33.536	2368
33.544	2338.99999999998
33.552	2314
33.56	2289
33.568	2266
33.576	2243
33.584	2220
33.592	2201
33.6	2185
33.608	2168.99999999999
33.616	2153
33.624	2141
33.632	2135
33.64	2129
33.648	2123
33.656	2120
33.664	2118
33.672	2117
33.68	2117
33.688	2117
33.696	2117
33.704	2113
33.712	2107
33.72	2104
33.728	2106
33.736	2111
33.744	2114
33.752	2115
33.76	2116
33.768	2116
33.776	2116
33.784	2116
33.792	2116
33.8	2116
33.808	2116
33.816	2116
33.824	2116
33.832	2116
33.84	2116
33.848	2119
33.856	2124
33.864	2126
33.872	2127
33.88	2128
33.888	2128
33.896	2128
33.904	2128
33.912	2128
33.92	2125
33.928	2121
33.936	2119
33.944	2118
33.952	2117
33.96	2117
33.968	2117
33.976	2117
33.984	2117
33.992	2117
34	2117
34.008	2117
34.016	2117
34.024	2117
34.032	2117
34.04	2117
34.048	2117
34.056	2117
34.064	2117
34.072	2117
34.08	2117
34.088	2117
34.096	2117
34.104	2120
34.112	2124
34.12	2126
34.128	2131
34.136	2142
34.144	2158
34.152	2181
34.16	2212.00000000003
34.168	2253
34.176	2308
34.184	2376
34.192	2454
34.2	2538
34.208	2625
34.216	2714
34.224	2803.00000000008
34.232	2889
34.24	2966
34.248	3034
34.256	3098
34.264	3156
34.272	3203
34.28	3242
34.288	3272.00000000002
34.296	3290
34.304	3296
34.312	3288
34.32	3265
34.328	3232
34.336	3193
34.344	3148
34.352	3101.99999999996
34.36	3064
34.368	3030
34.376	2998
34.384	2971
34.392	2947
34.4	2924
34.408	2900
34.416	2876.99999999998
34.424	2855
34.432	2829
34.44	2801
34.448	2776
34.456	2752
34.464	2728
34.472	2709
34.48	2692.99999999998
34.488	2673
34.496	2652
34.504	2630
34.512	2607
34.52	2589
34.528	2573
34.536	2557
34.544	2541.99999999999
34.552	2527
34.56	2512
34.568	2496
34.576	2484
34.584	2475
34.592	2464
34.6	2454
34.608	2444.99999999999
34.616	2433
34.624	2420
34.632	2402
34.64	2381
34.648	2360
34.656	2338
34.664	2316
34.672	2293.99999999998
34.68	2275
34.688	2259
34.696	2240
34.704	2218
34.712	2200
34.72	2180
34.728	2155
34.736	2131.99999999998
34.744	2113
34.752	2097
34.76	2081
34.768	2069
34.776	2059
34.784	2047
34.792	2038
34.8	2028.99999999999
34.808	2017
34.816	2007
34.824	1998
34.832	1986
34.84	1977
34.848	1969
34.856	1961
34.864	1953
34.872	1941
34.88	1928
34.888	1914
34.896	1899
34.904	1885
34.912	1871
34.92	1856
34.928	1844
34.936	1838
34.944	1835
34.952	1830
34.96	1823
34.968	1820
34.976	1818
34.984	1821
34.992	1827
35	1834
35.008	1848
35.016	1870
35.024	1896
35.032	1927.00000000003
35.04	1969
35.048	2020
35.056	2071
35.064	2119
35.072	2166
35.08	2212
35.088	2253
35.096	2289.00000000003
35.104	2318
35.112	2339
35.12	2358
35.128	2371
35.136	2279
35.144	2132
35.152	2052
35.16	2003.99999999996
35.168	1970
35.176	1941
35.184	1917
35.192	1897
35.2	1879
35.208	1864
35.216	1852
35.224	1844
35.232	1840
35.24	1838
35.248	1837
35.256	1837
35.264	1837
35.272	1837
35.28	1837
35.288	1837
35.296	1839
35.304	1842
35.312	1845
35.32	1849
35.328	1851
35.336	1852
35.344	1852
35.352	1852
35.36	1852
35.368	1852
35.376	1850
35.384	1847
35.392	1844
35.4	1840
35.408	1838
35.416	1835
35.424	1832
35.432	1832
35.44	1834
35.448	1835
35.456	1836
35.464	1836
35.472	1834
35.48	1831
35.488	1830
35.496	1829
35.504	1829
35.512	1829
35.52	1829
35.528	1829
35.536	1829
35.544	1829
35.552	1829
35.56	1827
35.568	1822
35.576	1817
35.584	1813
35.592	1809
35.6	1805
35.608	1801
35.616	1799
35.624	1800
35.632	1804
35.64	1810
35.648	1815
35.656	1820
35.664	1826
35.672	1831
35.68	1836
35.688	1840
35.696	1842
35.704	1843
35.712	1844
35.72	1844
35.728	1846
35.736	1849
35.744	1851
35.752	1852
35.76	1852
35.768	1852
35.776	1852
35.784	1852
35.792	1852
35.8	1852
35.808	1852
35.816	1852
35.824	1852
35.832	1854
35.84	1859
35.848	1868
35.856	1882
35.864	1901
35.872	1925
35.88	1953
35.888	1981
35.896	2009
35.904	2037
35.912	2063
35.92	2086
35.928	2105
35.936	2121
35.944	2133
35.952	2143
35.96	2150
35.968	2151
35.976	2148
35.984	2140
35.992	2128
36	2116
36.008	2104
36.016	2092
36.024	2080
36.032	2065.99999999999
36.04	2053
36.048	2043
36.056	2034
36.064	2027
36.072	2022
36.08	2017
36.088	2015
36.096	2012
36.104	2008
36.112	2006
36.12	2005
36.128	2005
36.136	2003
36.144	2000
36.152	1996
36.16	1990
36.168	1985
36.176	1981
36.184	1975
36.192	1970
36.2	1965
36.208	1959
36.216	1954
36.224	1949
36.232	1943
36.24	1936
36.248	1928
36.256	1920
36.264	1912
36.272	1904
36.28	1896
36.288	1887.99999999999
36.296	1882
36.304	1877
36.312	1871
36.32	1864
36.328	1858
36.336	1855
36.344	1852
36.352	1848
36.36	1848
36.368	1850
36.376	1851
36.384	1852
36.392	1852
36.4	1852
36.408	1852
36.416	1852
36.424	1852
36.432	1852
36.44	1852
36.448	1852
36.456	1852
36.464	1852
36.472	1852
36.48	1852
36.488	1852
36.496	1852
36.504	1852
36.512	1852
36.52	1852
36.528	1852
36.536	1852
36.544	1852
36.552	1852
36.56	1852
36.568	1852
36.576	1852
36.584	1852
36.592	1852
36.6	1852
36.608	1852
36.616	1852
36.624	1852
36.632	1852
36.64	1852
36.648	1854
36.656	1859
36.664	1866
36.672	1877.00000000001
36.68	1895
36.688	1916
36.696	1940
36.704	1970
36.712	2005
36.72	2043
36.728	2080
36.736	2112.00000000003
36.744	2142
36.752	2171
36.76	2196
36.768	2216
36.776	2234
36.784	2249
36.792	2261
36.8	2269
36.808	2271
36.816	2266
36.824	2255
36.832	2242
36.84	2225
36.848	2207
36.856	2190
36.864	2170.99999999998
36.872	2152
36.88	2134
36.888	2119
36.896	2108
36.904	2098
36.912	2089
36.92	2081
36.928	2075
36.936	2070
36.944	2065
36.952	2063
36.96	2062
36.968	2061
36.976	2059
36.984	2056
36.992	2052
37	2048
37.008	2044
37.016	2040
37.024	2036
37.032	2032
37.04	2028
37.048	2024
37.056	2022
37.064	2019
37.072	2016
37.08	2012
37.088	2008
37.096	2006
37.104	2003
37.112	2000
37.12	1996
37.128	1990
37.136	1985
37.144	1981
37.152	1975
37.16	1967.99999999999
37.168	1960
37.176	1952
37.184	1928
37.192	1894
37.2	1870
37.208	1855
37.216	1844
37.224	1833.99999999999
37.232	1829
37.24	1823
37.248	1816
37.256	1808
37.264	1797
37.272	1785
37.28	1775
37.288	1765.99999999999
37.296	1753
37.304	1740
37.312	1720
37.32	1712
37.328	1708
37.336	1706
37.344	1705
37.352	1705
37.36	1705
37.368	1705
37.376	1705
37.384	1705
37.392	1705
37.4	1705
37.408	1705
37.416	1705
37.424	1705
37.432	1705
37.44	1709
37.448	1715
37.456	1718
37.464	1719
37.472	1723
37.48	1732.00000000001
37.488	1751
37.496	1784
37.504	1830
37.512	1890
37.52	1999
37.528	2076
37.536	2150
37.544	2281.00000000007
37.552	2339
37.56	2394
37.568	2470
37.576	2513
37.584	2546
37.592	2569
37.6	2585
37.608	2589
37.616	2580
37.624	2560
37.632	2531
37.64	2495
37.648	2455
37.656	2416
37.664	2377
37.672	2335.99999999996
37.68	2296
37.688	2261
37.696	2229
37.704	2202
37.712	2181
37.72	2163
37.728	2147
37.736	2135.99999999999
37.744	2126
37.752	2117
37.76	2109
37.768	2101
37.776	2097
37.784	2095
37.792	2094
37.8	2093
37.808	2093
37.816	2093
37.824	2093
37.832	2093
37.84	2089
37.848	2080
37.856	2068
37.864	2057.99999999999
37.872	2049
37.88	2041
37.888	2033
37.896	2025
37.904	2021
37.912	2019
37.92	2018
37.928	2017
37.936	2014
37.944	2009
37.952	2007
37.96	2006
37.968	2001
37.976	1995
37.984	1992
37.992	1990
38	1989
38.008	1989
38.016	1993
38.024	1999
38.032	2002
38.04	2003
38.048	2004
38.056	2004
38.064	2007
38.072	2016
38.08	2028
38.088	2042
38.096	2053.00000000001
38.104	2062
38.112	2069
38.12	2077
38.128	2085
38.136	2093
38.144	2105
38.152	2118
38.16	2131.00000000001
38.168	2146
38.176	2157
38.184	2163
38.192	2166
38.2	2167
38.208	2168
38.216	2168
38.224	2168
38.232	2168
38.24	2168
38.248	2171
38.256	2180
38.264	2192
38.272	2206
38.28	2224
38.288	2248.00000000003
38.296	2283
38.304	2330
38.312	2386
38.32	2456
38.328	2532
38.336	2611
38.344	2692
38.352	2773.00000000007
38.36	2859
38.368	2943
38.376	3019
38.384	3087
38.392	3147
38.4	3199
38.408	3240
38.416	3264.00000000001
38.424	3272
38.432	3268
38.44	3255
38.448	3231
38.456	3196
38.464	3155
38.472	3117
38.48	3079.99999999996
38.488	3038
38.496	2994
38.504	2954
38.512	2919
38.52	2887
38.528	2856
38.536	2829
38.544	2804.99999999998
38.552	2778
38.56	2753
38.568	2729
38.576	2706
38.584	2683
38.592	2660
38.6	2644
38.608	2632.99999999999
38.616	2625
38.624	2617
38.632	2605
38.64	2592
38.648	2578
38.656	2559
38.664	2539
38.672	2521.99999999998
38.68	2501
38.688	2476
38.696	2448
38.704	2419
38.712	2391
38.72	2366
38.728	2341
38.736	2313.99999999998
38.744	2289
38.752	2269
38.76	2248
38.768	2226
38.776	2204
38.784	2186
38.792	2173
38.8	2158.99999999999
38.808	2145
38.816	2131
38.824	2120
38.832	2110
38.84	2097
38.848	2087
38.856	2082
38.864	2075.99999999999
38.872	2070
38.88	2063
38.888	2052
38.896	2042
38.904	2033
38.912	2022
38.92	2009
38.928	1995
38.936	1980
38.944	1965
38.952	1951
38.96	1936
38.968	1921
38.976	1903
38.984	1882
38.992	1864
39	1844
39.008	1822
39.016	1800
39.024	1778
39.032	1755.99999999998
39.04	1734
39.048	1716
39.056	1704
39.064	1694
39.072	1685
39.08	1685
39.088	1689
39.096	1691
39.104	1695
39.112	1700
39.12	1702
39.128	1703
39.136	1708
39.144	1721
39.152	1739
39.16	1763.00000000003
39.168	1797
39.176	1837
39.184	1883
39.192	1935
39.2	1926
39.208	1879
39.216	1870
39.224	1873
39.232	1882
39.24	1893
39.248	1901
39.256	1903
39.264	1899
39.272	1892
39.28	1884
39.288	1873.99999999999
39.296	1863
39.304	1852
39.312	1836
39.32	1818
39.328	1800
39.336	1782
39.344	1763
39.352	1743.99999999998
39.36	1726
39.368	1711
39.376	1698
39.384	1682
39.392	1667
39.4	1656
39.408	1646
39.416	1636.99999999999
39.424	1631
39.432	1626
39.44	1621
39.448	1619
39.456	1618
39.464	1617
39.472	1617
39.48	1617
39.488	1617
39.496	1617
39.504	1617
39.512	1617
39.52	1617
39.528	1617
39.536	1617
39.544	1617
39.552	1617
39.56	1617
39.568	1617
39.576	1617
39.584	1617
39.592	1615
39.6	1612
39.608	1610
39.616	1609
39.624	1609
39.632	1609
39.64	1609
39.648	1609
39.656	1609
39.664	1609
39.672	1607
39.68	1604
39.688	1602
39.696	1601
39.704	1601
39.712	1601
39.72	1601
39.728	1601
39.736	1601
39.744	1601
39.752	1601
39.76	1601
39.768	1601
39.776	1601
39.784	1601
39.792	1601
39.8	1603
39.808	1606
39.816	1609
39.824	1613
39.832	1615
39.84	1616
39.848	1616
39.856	1616
39.864	1616
39.872	1616
39.88	1616
39.888	1616
39.896	1616
39.904	1616
39.912	1616
39.92	1616
39.928	1616
39.936	1616
39.944	1616
39.952	1616
39.96	1618
39.968	1623
39.976	1632
39.984	1647
39.992	1668
40	1690
40.008	1715
40.016	1745
40.024	1777
40.032	1809.00000000003
40.04	1839
40.048	1867
40.056	1892
40.064	1912
40.072	1928
40.08	1940
40.088	1950
40.096	1955
40.104	1954
40.112	1949
40.12	1939
40.128	1924
40.136	1905
40.144	1885
40.152	1867
40.16	1851.99999999999
40.168	1840
40.176	1830
40.184	1821
40.192	1815
40.2	1810
40.208	1803
40.216	1798
40.224	1791.99999999999
40.232	1786
40.24	1781
40.248	1777
40.256	1775
40.264	1772
40.272	1768
40.28	1766
40.288	1765
40.296	1763
40.304	1760
40.312	1758
40.32	1757
40.328	1757
40.336	1755
40.344	1752
40.352	1750
40.36	1747
40.368	1744
40.376	1742
40.384	1739
40.392	1734
40.4	1729
40.408	1725
40.416	1718.99999999999
40.424	1712
40.432	1706
40.44	1701
40.448	1695
40.456	1688
40.464	1682
40.472	1676
40.48	1667.99999999999
40.488	1660
40.496	1654
40.504	1649
40.512	1643
40.52	1634
40.528	1625
40.536	1621
40.544	1619
40.552	1618
40.56	1617
40.568	1617
40.576	1617
40.584	1617
40.592	1617
40.6	1617
40.608	1617
40.616	1617
40.624	1617
40.632	1617
40.64	1617
40.648	1617
40.656	1617
40.664	1617
40.672	1617
40.68	1617
40.688	1617
40.696	1617
40.704	1617
40.712	1617
40.72	1617
40.728	1617
40.736	1617
40.744	1617
40.752	1617
40.76	1617
40.768	1617
40.776	1617
40.784	1619
40.792	1624
40.8	1632.00000000001
40.808	1647
40.816	1668
40.824	1692
40.832	1722
40.84	1756
40.848	1792
40.856	1830
40.864	1868.00000000003
40.872	1904
40.88	1938
40.888	1970
40.896	1999
40.904	2024
40.912	2042
40.92	2055
40.928	2062
40.936	2063
40.944	2060
40.952	2052
40.96	2042
40.968	2026
40.976	2007
40.984	1990
40.992	1971
41	1952
41.008	1934
41.016	1916
41.024	1898
41.032	1882.99999999999
41.04	1874
41.048	1867
41.056	1860
41.064	1854
41.072	1849
41.08	1845
41.088	1843
41.096	1842
41.104	1839
41.112	1836
41.12	1832
41.128	1828
41.136	1824
41.144	1820
41.152	1816
41.16	1812
41.168	1808
41.176	1804
41.184	1800
41.192	1796
41.2	1791
41.208	1784
41.216	1776
41.224	1767.99999999999
41.232	1760
41.24	1754
41.248	1789
41.256	1842
41.264	1865
41.272	1877
41.28	1880
41.288	1878
41.296	1874
41.304	1865
41.312	1854
41.32	1845
41.328	1838
41.336	1831
41.344	1825
41.352	1815.99999999999
41.36	1808
41.368	1800
41.376	1789
41.384	1781
41.392	1774
41.4	1764
41.408	1753
41.416	1740.99999999999
41.424	1731
41.432	1723
41.44	1716
41.448	1712
41.456	1710
41.464	1709
41.472	1709
41.48	1709
41.488	1709
41.496	1709
41.504	1709
41.512	1709
41.52	1709
41.528	1709
41.536	1709
41.544	1709
41.552	1709
41.56	1709
41.568	1709
41.576	1709
41.584	1709
41.592	1709
41.6	1709
41.608	1709
41.616	1712
41.624	1720
41.632	1734
41.64	1760
41.648	1799
41.656	1848
41.664	1904
41.672	1964.00000000005
41.68	2026
41.688	2085
41.696	2143
41.704	2201
41.712	2256
41.72	2309
41.728	2358
41.736	2398.00000000003
41.744	2431
41.752	2457
41.76	2473
41.768	2478
41.776	2474
41.784	2459
41.792	2436
41.8	2407.99999999997
41.808	2378
41.816	2347
41.824	2316
41.832	2284
41.84	2252
41.848	2220
41.856	2188
41.864	2155.99999999997
41.872	2127
41.88	2107
41.888	2091
41.896	2077
41.904	2063
41.912	2052
41.92	2046
41.928	2043
41.936	2046
41.944	2047
41.952	2044
41.96	2039
41.968	2031
41.976	2021
41.984	2010
41.992	1997
42	1984
42.008	1971
42.016	1959
42.024	1947
42.032	1937.99999999999
42.04	1929
42.048	1918
42.056	1909
42.064	1902
42.072	1895
42.08	1889
42.088	1880
42.096	1867.99999999999
42.104	1855
42.112	1843
42.12	1831
42.128	1819
42.136	1810
42.144	1801
42.152	1793
42.16	1789
42.168	1787
42.176	1783
42.184	1778
42.192	1772
42.2	1763
42.208	1753
42.216	1745
42.224	1736.99999999999
42.232	1729
42.24	1725
42.248	1723
42.256	1722
42.264	1721
42.272	1721
42.28	1721
42.288	1725
42.296	1731
42.304	1734
42.312	1735
42.32	1736
42.328	1736
42.336	1736
42.344	1736
42.352	1739
42.36	1747
42.368	1757
42.376	1768
42.384	1776
42.392	1784
42.4	1795
42.408	1804
42.416	1811.00000000001
42.424	1821
42.432	1836
42.44	1853
42.448	1874
42.456	1903
42.464	1944
42.472	1996
42.48	2057.00000000006
42.488	2126
42.496	2199
42.504	2278
42.512	2361
42.52	2445
42.528	2523
42.536	2594
42.544	2657.00000000005
42.552	2714
42.56	2765
42.568	2807
42.576	2841
42.584	2868
42.592	2884
42.6	2892
42.608	2893
42.616	2884
42.624	2863
42.632	2834
42.64	2799
42.648	2763
42.656	2723
42.664	2680
42.672	2641.99999999997
42.68	2607
42.688	2574
42.696	2545
42.704	2521
42.712	2502
42.72	2486
42.728	2472
42.736	2458.99999999999
42.744	2446
42.752	2432
42.76	2419
42.768	2407
42.776	2395
42.784	2382
42.792	2371
42.8	2362.99999999999
42.808	2356
42.816	2349
42.824	2340
42.832	2329
42.84	2321
42.848	2313
42.856	2302
42.864	2292.99999999999
42.872	2286
42.88	2279
42.888	2273
42.896	2264
42.904	2252
42.912	2239
42.92	2227
42.928	2214.99999999999
42.936	2199
42.944	2181
42.952	2163
42.96	2145
42.968	2129
42.976	2117
42.984	2111
42.992	2108
43	2106
43.008	2105
43.016	2102
43.024	2097
43.032	2091.99999999999
43.04	2083
43.048	2073
43.056	2065
43.064	2057
43.072	2049
43.08	2042
43.088	2035
43.096	2032
43.104	2027
43.112	2022
43.12	2016
43.128	2010
43.136	2004
43.144	1998
43.152	1995
43.16	1997
43.168	1998
43.176	1995
43.184	1994
43.192	1989
43.2	1980
43.208	1969
43.216	1961
43.224	1953.99999999999
43.232	1947
43.24	1941
43.248	1935
43.256	1932
43.264	1926
43.272	1919
43.28	1920
43.288	1924
43.296	1899
43.304	1864
43.312	1854
43.32	1862
43.328	1883
43.336	1908
43.344	1932
43.352	1959.00000000002
43.36	1988
43.368	2014
43.376	2037
43.384	2057
43.392	2075
43.4	2090
43.408	2102
43.416	2108
43.424	2106
43.432	2099
43.44	2088
43.448	2072
43.456	2052
43.464	2028
43.472	2001
43.48	1972.99999999998
43.488	1947
43.496	1924
43.504	1902
43.512	1882
43.52	1861
43.528	1843
43.536	1828
43.544	1813.99999999999
43.552	1801
43.56	1789
43.568	1779
43.576	1770
43.584	1761
43.592	1753
43.6	1745
43.608	1735.99999999999
43.616	1726
43.624	1717
43.632	1709
43.64	1701
43.648	1691
43.656	1680
43.664	1672
43.672	1666
43.68	1661
43.688	1657
43.696	1653
43.704	1651
43.712	1648
43.72	1644
43.728	1642
43.736	1641
43.744	1639
43.752	1636
43.76	1634
43.768	1633
43.776	1631
43.784	1628
43.792	1626
43.8	1625
43.808	1625
43.816	1625
43.824	1625
43.832	1623
43.84	1620
43.848	1618
43.856	1617
43.864	1617
43.872	1619
43.88	1622
43.888	1625
43.896	1629
43.904	1631
43.912	1632
43.92	1632
43.928	1632
43.936	1632
43.944	1632
43.952	1632
43.96	1632
43.968	1634
43.976	1637
43.984	1641
43.992	1645
44	1647
44.008	1648
44.016	1648
44.024	1648
44.032	1650
44.04	1653
44.048	1655
44.056	1658
44.064	1661
44.072	1663
44.08	1664
44.088	1664
44.096	1664
44.104	1664
44.112	1664
44.12	1666
44.128	1671
44.136	1680
44.144	1692
44.152	1709
44.16	1729.00000000002
44.168	1749
44.176	1773
44.184	1799
44.192	1827
44.2	1856
44.208	1882
44.216	1907
44.224	1930.00000000002
44.232	1949
44.24	1966
44.248	1977
44.256	1983
44.264	1983
44.272	1978
44.28	1969
44.288	1956.99999999999
44.296	1943
44.304	1928
44.312	1914
44.32	1901
44.328	1889
44.336	1879
44.344	1869
44.352	1858.99999999999
44.36	1850
44.368	1841
44.376	1833
44.384	1825
44.392	1817
44.4	1811
44.408	1806
44.416	1801
44.424	1799
44.432	1798
44.44	1797
44.448	1797
44.456	1795
44.464	1792
44.472	1788
44.48	1781.99999999999
44.488	1775
44.496	1770
44.504	1765
44.512	1759
44.52	1754
44.528	1749
44.536	1743
44.544	1738
44.552	1732
44.56	1724
44.568	1718
44.576	1713
44.584	1709
44.592	1705
44.6	1701
44.608	1699
44.616	1698
44.624	1695
44.632	1692
44.64	1688
44.648	1682
44.656	1675
44.664	1670
44.672	1667
44.68	1666
44.688	1665
44.696	1665
44.704	1665
44.712	1665
44.72	1665
44.728	1665
44.736	1665
44.744	1665
44.752	1665
44.76	1665
44.768	1665
44.776	1665
44.784	1665
44.792	1665
44.8	1665
44.808	1665
44.816	1665
44.824	1665
44.832	1665
44.84	1665
44.848	1665
44.856	1665
44.864	1665
44.872	1665
44.88	1665
44.888	1665
44.896	1665
44.904	1665
44.912	1667
44.92	1670
44.928	1673
44.936	1677
44.944	1681
44.952	1687
44.96	1696
44.968	1709
44.976	1727
44.984	1750
44.992	1779.00000000003
45	1815
45.008	1854
45.016	1891
45.024	1926
45.032	1960.00000000003
45.04	1992
45.048	2022
45.056	2051
45.064	2079
45.072	2104
45.08	2124
45.088	2138
45.096	2145
45.104	2147
45.112	2142
45.12	2130
45.128	2115
45.136	2100
45.144	2084
45.152	2068
45.16	2051.99999999999
45.168	2036
45.176	2020
45.184	2003
45.192	1986
45.2	1969
45.208	1955
45.216	1942
45.224	1928.99999999999
45.232	1919
45.24	1912
45.248	1908
45.256	1904
45.264	1900
45.272	1898
45.28	1897
45.288	1897
45.296	1897
45.304	1895
45.312	1890
45.32	1885
45.328	1881
45.336	1875
45.344	1908
45.352	1959.00000000003
45.36	1982
45.368	1990
45.376	1991
45.384	1990
45.392	1984
45.4	1975
45.408	1968
45.416	1960.99999999999
45.424	1952
45.432	1944
45.44	1937
45.448	1931
45.456	1925
45.464	1916
45.472	1905
45.48	1893.99999999999
45.488	1882
45.496	1867
45.504	1851
45.512	1837
45.52	1827
45.528	1819
45.536	1812
45.544	1804.99999999999
45.552	1799
45.56	1793
45.568	1787
45.576	1781
45.584	1772
45.592	1764
45.6	1757
45.608	1748.99999999999
45.616	1743
45.624	1740
45.632	1738
45.64	1737
45.648	1737
45.656	1737
45.664	1737
45.672	1737
45.68	1737
45.688	1737
45.696	1737
45.704	1737
45.712	1737
45.72	1737
45.728	1737
45.736	1737
45.744	1739
45.752	1742
45.76	1743
45.768	1744
45.776	1747
45.784	1755
45.792	1768
45.8	1792.00000000002
45.808	1825
45.816	1866
45.824	1915
45.832	1972
45.84	2030
45.848	2086
45.856	2144
45.864	2202.00000000005
45.872	2257
45.88	2309
45.888	2356
45.896	2397
45.904	2430
45.912	2452
45.92	2463
45.928	2466
45.936	2467
45.944	2462
45.952	2447
45.96	2428
45.968	2403
45.976	2376
45.984	2350
45.992	2321.99999999997
46	2293
46.008	2271
46.016	2252
46.024	2230
46.032	2206.99999999998
46.04	2184
46.048	2160
46.056	2135.99999999998
46.064	2118
46.072	2109
46.08	2105
46.088	2103
46.096	2102
46.104	2098
46.112	2093
46.12	2088
46.128	2076
46.136	2061
46.144	2045
46.152	2028
46.16	2012.99999999999
46.168	2001
46.176	1993
46.184	1986
46.192	1976
46.2	1965
46.208	1954
46.216	1939
46.224	1922.99999999999
46.232	1906
46.24	1888
46.248	1870
46.256	1849
46.264	1830
46.272	1814
46.28	1800
46.288	1789.99999999999
46.296	1782
46.304	1775
46.312	1772
46.32	1767
46.328	1759
46.336	1750
46.344	1743
46.352	1740
46.36	1738
46.368	1737
46.376	1737
46.384	1737
46.392	1737
46.4	1737
46.408	1737
46.416	1737
46.424	1737
46.432	1737
46.44	1737
46.448	1737
46.456	1737
46.464	1737
46.472	1737
46.48	1737
46.488	1737
46.496	1737
46.504	1737
46.512	1737
46.52	1737
46.528	1737
46.536	1737
46.544	1737
46.552	1737
46.56	1737
46.568	1739
46.576	1742
46.584	1743
46.592	1747
46.6	1758
46.608	1775.00000000002
46.616	1802
46.624	1839
46.632	1888
46.64	1947
46.648	2012
46.656	2080
46.664	2149
46.672	2219.00000000006
46.68	2293
46.688	2366
46.696	2434
46.704	2500
46.712	2563
46.72	2622
46.728	2675
46.736	2722.00000000004
46.744	2756
46.752	2779
46.76	2791
46.768	2791
46.776	2782
46.784	2763
46.792	2737
46.8	2705.99999999997
46.808	2669
46.816	2633
46.824	2600
46.832	2565
46.84	2534
46.848	2507
46.856	2482
46.864	2459.99999999998
46.872	2443
46.88	2426
46.888	2408
46.896	2396
46.904	2387
46.912	2380
46.92	2373
46.928	2366.99999999999
46.936	2361
46.944	2355
46.952	2349
46.96	2340
46.968	2332
46.976	2325
46.984	2313
46.992	2297.99999999999
47	2284
47.008	2271
47.016	2260
47.024	2249
47.032	2237.99999999999
47.04	2226
47.048	2214
47.056	2201.99999999999
47.064	2190
47.072	2175
47.08	2159
47.088	2145
47.096	2131.99999999999
47.104	2119
47.112	2110
47.12	2105
47.128	2103
47.136	2102
47.144	2101
47.152	2101
47.16	2101
47.168	2098
47.176	2093
47.184	2088
47.192	2082
47.2	2079
47.208	2081
47.216	2085
47.224	2090
47.232	2095
47.24	2098
47.248	2099
47.256	2100
47.264	2100
47.272	2097
47.28	2093
47.288	2087.99999999999
47.296	2082
47.304	2079
47.312	2081
47.32	2085
47.328	2090
47.336	2095
47.344	2098
47.352	2096
47.36	2089
47.368	2080
47.376	2069
47.384	2058
47.392	2008
47.4	1942
47.408	1909
47.416	1895
47.424	1892
47.432	1894
47.44	1899
47.448	1908
47.456	1919
47.464	1934
47.472	1953
47.48	1978.00000000003
47.488	2024
47.496	2060
47.504	2099
47.512	2158
47.52	2194
47.528	2227
47.536	2254
47.544	2280.00000000001
47.552	2291
47.56	2297
47.568	2295
47.576	2288
47.584	2274
47.592	2252
47.6	2226
47.608	2199.99999999998
47.616	2172
47.624	2142
47.632	2110
47.64	2077
47.648	2044
47.656	2010
47.664	1965
47.672	1937.99999999998
47.68	1915
47.688	1881
47.696	1866
47.704	1853
47.712	1836
47.72	1824
47.728	1812
47.736	1799.99999999999
47.744	1787
47.752	1774
47.76	1763
47.768	1754
47.776	1745
47.784	1735
47.792	1724
47.8	1712.99999999999
47.808	1701
47.816	1687
47.824	1674
47.832	1663
47.84	1656
47.848	1650
47.856	1643
47.864	1638
47.872	1633
47.88	1629
47.888	1627
47.896	1626
47.904	1625
47.912	1625
47.92	1623
47.928	1616.99999999999
47.936	1611
47.944	1606
47.952	1599
47.96	1594
47.968	1589
47.976	1583
47.984	1576
47.992	1570
48	1565
48.008	1559
48.016	1552
48.024	1546
48.032	1543
48.04	1542
48.048	1541
48.056	1538
48.064	1533
48.072	1531
48.08	1528
48.088	1524
48.096	1520
48.104	1516
48.112	1514
48.12	1515
48.128	1518
48.136	1519
48.144	1520
48.152	1522
48.16	1525
48.168	1527
48.176	1531
48.184	1536
48.192	1540
48.2	1544
48.208	1548
48.216	1552
48.224	1554
48.232	1555
48.24	1558
48.248	1563
48.256	1570
48.264	1579
48.272	1593
48.28	1611
48.288	1632.00000000002
48.296	1654
48.304	1678
48.312	1703
48.32	1728
48.328	1753
48.336	1781
48.344	1809
48.352	1836.00000000002
48.36	1862
48.368	1885
48.376	1903
48.384	1914
48.392	1919
48.4	1922
48.408	1921
48.416	1917
48.424	1911
48.432	1902
48.44	1891
48.448	1880
48.456	1867
48.464	1854
48.472	1843
48.48	1835.99999999999
48.488	1828
48.496	1822
48.504	1817
48.512	1813
48.52	1809
48.528	1805
48.536	1801
48.544	1797
48.552	1793
48.56	1789
48.568	1787
48.576	1783
48.584	1778
48.592	1775
48.6	1772
48.608	1766
48.616	1761
48.624	1757
48.632	1751
48.64	1746
48.648	1741
48.656	1735
48.664	1728
48.672	1719.99999999999
48.68	1711
48.688	1702
48.696	1693
48.704	1685
48.712	1677
48.72	1671
48.728	1668
48.736	1666
48.744	1665
48.752	1665
48.76	1665
48.768	1665
48.776	1665
48.784	1665
48.792	1665
48.8	1665
48.808	1665
48.816	1665
48.824	1665
48.832	1665
48.84	1665
48.848	1665
48.856	1665
48.864	1665
48.872	1665
48.88	1665
48.888	1665
48.896	1665
48.904	1665
48.912	1665
48.92	1665
48.928	1665
48.936	1665
48.944	1665
48.952	1665
48.96	1665
48.968	1665
48.976	1665
48.984	1665
48.992	1665
49	1665
49.008	1665
49.016	1665
49.024	1665
49.032	1665
49.04	1665
49.048	1665
49.056	1665
49.064	1665
49.072	1665
49.08	1665
49.088	1667
49.096	1674.00000000001
49.104	1686
49.112	1705
49.12	1729.00000000002
49.128	1756
49.136	1788
49.144	1825
49.152	1865
49.16	1904.00000000003
49.168	1938
49.176	1970
49.184	2001
49.192	2027
49.2	2048
49.208	2064
49.216	2077
49.224	2087
49.232	2089
49.24	2083
49.248	2074
49.256	2061
49.264	2043
49.272	2023
49.28	2002
49.288	1978.99999999998
49.296	1957
49.304	1939
49.312	1926
49.32	1915
49.328	1908
49.336	1902
49.344	1897
49.352	1893
49.36	1889
49.368	1885
49.376	1881
49.384	1879
49.392	1876
49.4	1872
49.408	1905
49.416	1957.00000000003
49.424	1983
49.432	1994
49.44	1997
49.448	1997
49.456	1993
49.464	1987
49.472	1982
49.48	1977
49.488	1971
49.496	1966
49.504	1960
49.512	1952
49.52	1944
49.528	1936
49.536	1928
49.544	1922
49.552	1917
49.56	1911
49.568	1906
49.576	1901
49.584	1895
49.592	1888
49.6	1880
49.608	1871.99999999999
49.616	1866
49.624	1861
49.632	1855
49.64	1848
49.648	1840
49.656	1832
49.664	1826
49.672	1821
49.68	1817
49.688	1815
49.696	1814
49.704	1813
49.712	1813
49.72	1813
49.728	1813
49.736	1813
49.744	1813
49.752	1813
49.76	1813
49.768	1813
49.776	1813
49.784	1813
49.792	1813
49.8	1813
49.808	1813
49.816	1813
49.824	1813
49.832	1813
49.84	1813
49.848	1813
49.856	1813
49.864	1813
49.872	1813
49.88	1813
49.888	1813
49.896	1813
49.904	1813
49.912	1815
49.92	1822
49.928	1833.00000000001
49.936	1849
49.944	1871
49.952	1898
49.96	1930
49.968	1967
49.976	2006
49.984	2045
49.992	2083.00000000003
50	2119
50.008	2154
50.016	2185
50.024	2213
50.032	2237.00000000002
50.04	2255
50.048	2268
50.056	2276
50.064	2278
50.072	2275
50.08	2268
50.088	2256
50.096	2239.99999999998
50.104	2220
50.112	2198
50.12	2175.99999999998
50.128	2154
50.136	2133
50.144	2115
50.152	2098
50.16	2082.99999999999
50.168	2074
50.176	2067
50.184	2062
50.192	2057
50.2	2051
50.208	2044
50.216	2038
50.224	2033
50.232	2029
50.24	2027
50.248	2026
50.256	2025
50.264	2025
50.272	2023
50.28	2018
50.288	2010.99999999999
50.296	2004
50.304	1996
50.312	1988
50.32	1980
50.328	1972
50.336	1963
50.344	1954
50.352	1946.99999999999
50.36	1942
50.368	1935
50.376	1928
50.384	1918
50.392	1907
50.4	1896
50.408	1882
50.416	1866.99999999999
50.424	1854
50.432	1843
50.44	1834
50.448	1825
50.456	1819
50.464	1816
50.472	1814
50.48	1813
50.488	1813
50.496	1813
50.504	1811
50.512	1808
50.52	1804
50.528	1800
50.536	1798
50.544	1797
50.552	1797
50.56	1799
50.568	1802
50.576	1805
50.584	1809
50.592	1811
50.6	1812
50.608	1812
50.616	1812
50.624	1812
50.632	1812
50.64	1812
50.648	1812
50.656	1812
50.664	1812
50.672	1812
50.68	1812
50.688	1812
50.696	1812
50.704	1812
50.712	1814
50.72	1817
50.728	1819
50.736	1822
50.744	1829
50.752	1841
50.76	1857
50.768	1881
50.776	1914
50.784	1951
50.792	1992
50.8	2036.00000000004
50.808	2080
50.816	2125
50.824	2171
50.832	2212
50.84	2250
50.848	2285
50.856	2314
50.864	2339.00000000002
50.872	2360
50.88	2374
50.888	2383
50.896	2386
50.904	2381
50.912	2371
50.92	2355
50.928	2335.99999999998
50.936	2318
50.944	2299
50.952	2280
50.96	2262
50.968	2245
50.976	2229
50.984	2215
50.992	2203.99999999999
51	2196
51.008	2190
51.016	2183
51.024	2176
51.032	2167.99999999999
51.04	2157
51.048	2145
51.056	2132.99999999999
51.064	2121
51.072	2111
51.08	2102
51.088	2095
51.096	2090
51.104	2085
51.112	2081
51.12	2074.99999999999
51.128	2070
51.136	2067
51.144	2066
51.152	2063
51.16	2060
51.168	2058
51.176	2057
51.184	2057
51.192	2057
51.2	2057
51.208	2057
51.216	2059
51.224	2062
51.232	2063
51.24	2064
51.248	2064
51.256	2064
51.264	2064
51.272	2062
51.28	2059
51.288	2058
51.296	2057
51.304	2057
51.312	2057
51.32	2059
51.328	2062
51.336	2063
51.344	2064
51.352	2064
51.36	2064
51.368	2064
51.376	2064
51.384	2064
51.392	2064
51.4	2064
51.408	2064
51.416	2064
51.424	2064
51.432	2064
51.44	2064
51.448	2064
51.456	2051
51.464	2032
51.472	2022
51.48	2017
51.488	2015
51.496	2014
51.504	2013
51.512	2013
51.52	2013
51.528	2013
51.536	2013
51.544	2013
51.552	2013
51.56	2013
51.568	2015
51.576	2021
51.584	2035
51.592	2058
51.6	2087
51.608	2123.00000000004
51.616	2168
51.624	2219
51.632	2271
51.64	2320
51.648	2368
51.656	2416
51.664	2458
51.672	2498.00000000003
51.68	2534
51.688	2565
51.696	2591
51.704	2609
51.712	2621
51.72	2624
51.728	2617
51.736	2603.99999999999
51.744	2584
51.752	2555
51.76	2520
51.768	2479
51.776	2435
51.784	2392
51.792	2349
51.8	2308.99999999997
51.808	2273
51.816	2237
51.824	2201
51.832	2167
51.84	2134
51.848	2101
51.856	2072
51.864	2046.99999999998
51.872	2025
51.88	2006
51.888	1988
51.896	1968
51.904	1947
51.912	1927
51.92	1909
51.928	1891.99999999998
51.936	1875
51.944	1859
51.952	1841
51.96	1824
51.968	1807
51.976	1789
51.984	1769
51.992	1747.99999999998
52	1727
52.008	1709
52.016	1695
52.024	1683
52.032	1671.99999999999
52.04	1664
52.048	1657
52.056	1647.99999999999
52.064	1638
52.072	1628
52.08	1617
52.088	1609
52.096	1602.99999999999
52.104	1595
52.112	1588
52.12	1584
52.128	1580
52.136	1573
52.144	1567
52.152	1561
52.16	1555
52.168	1550
52.176	1545
52.184	1539.99999999999
52.192	1531
52.2	1522
52.208	1512
52.216	1502
52.224	1495
52.232	1492
52.24	1487
52.248	1482
52.256	1479
52.264	1478
52.272	1474
52.28	1469
52.288	1467
52.296	1466
52.304	1465
52.312	1463
52.32	1460
52.328	1458
52.336	1457
52.344	1457
52.352	1457
52.36	1459
52.368	1462
52.376	1466
52.384	1471
52.392	1477
52.4	1485
52.408	1494
52.416	1503.00000000001
52.424	1516
52.432	1533
52.44	1555
52.448	1582
52.456	1613
52.464	1647
52.472	1680
52.48	1714.00000000003
52.488	1752
52.496	1790
52.504	1827
52.512	1864
52.52	1895
52.528	1922
52.536	1943
52.544	1959.00000000001
52.552	1970
52.56	1975
52.568	1975
52.576	1970
52.584	1962
52.592	1950
52.6	1933
52.608	1916.99999999999
52.616	1902
52.624	1886
52.632	1872
52.64	1860
52.648	1849
52.656	1838
52.664	1827
52.672	1816.99999999999
52.68	1807
52.688	1800
52.696	1793
52.704	1787
52.712	1784
52.72	1782
52.728	1778
52.736	1773
52.744	1771
52.752	1768
52.76	1764
52.768	1759
52.776	1751
52.784	1742
52.792	1732
52.8	1721.99999999999
52.808	1715
52.816	1709
52.824	1700
52.832	1692
52.84	1688
52.848	1686
52.856	1685
52.864	1685
52.872	1685
52.88	1685
52.888	1685
52.896	1685
52.904	1685
52.912	1685
52.92	1685
52.928	1685
52.936	1685
52.944	1685
52.952	1685
52.96	1685
52.968	1685
52.976	1685
52.984	1685
52.992	1685
53	1683
53.008	1680
53.016	1680
53.024	1682
53.032	1683
53.04	1684
53.048	1684
53.056	1684
53.064	1684
53.072	1682
53.08	1679
53.088	1680
53.096	1682
53.104	1683
53.112	1684
53.12	1684
53.128	1684
53.136	1684
53.144	1684
53.152	1684
53.16	1684
53.168	1684
53.176	1684
53.184	1684
53.192	1684
53.2	1684
53.208	1684
53.216	1687
53.224	1692
53.232	1694
53.24	1698
53.248	1703.00000000001
53.256	1711
53.264	1725
53.272	1742
53.28	1766
53.288	1799.00000000003
53.296	1837
53.304	1880
53.312	1927
53.32	1975
53.328	2018
53.336	2054
53.344	2087
53.352	2118.00000000003
53.36	2144
53.368	2164
53.376	2179
53.384	2190
53.392	2195
53.4	2195
53.408	2187
53.416	2169.99999999998
53.424	2148
53.432	2124
53.44	2099
53.448	2074
53.456	2050
53.464	2033
53.472	2023
53.48	2018
53.488	2012
53.496	2006
53.504	2006
53.512	2009
53.52	2009
53.528	2006
53.536	2003
53.544	2002
53.552	2001
53.56	2001
53.568	2001
53.576	2001
53.584	2001
53.592	1999
53.6	1996
53.608	1992
53.616	1987
53.624	1984
53.632	1980
53.64	1974
53.648	1969
53.656	1965
53.664	1960
53.672	1953.99999999999
53.68	1947
53.688	1941
53.696	1935
53.704	1928
53.712	1920
53.72	1913
53.728	1909
53.736	1905
53.744	1899
53.752	1894
53.76	1890
53.768	1885
53.776	1879
53.784	1872
53.792	1865
53.8	1858.99999999999
53.808	1852
53.816	1845
53.824	1839
53.832	1832
53.84	1826
53.848	1822
53.856	1819
53.864	1818
53.872	1817
53.88	1817
53.888	1817
53.896	1817
53.904	1817
53.912	1817
53.92	1817
53.928	1817
53.936	1817
53.944	1817
53.952	1817
53.96	1817
53.968	1817
53.976	1817
53.984	1817
53.992	1817
54	1817
54.008	1817
54.016	1817
54.024	1817
54.032	1817
54.04	1817
54.048	1817
54.056	1818
54.064	1819
54.072	1820
54.08	1822
54.088	1828
54.096	1839.00000000001
54.104	1857
54.112	1880
54.12	1907.00000000003
54.128	1940
54.136	1975
54.144	2010
54.152	2042
54.16	2072.00000000003
54.168	2101
54.176	2128
54.184	2151.00000000002
54.192	2173
54.2	2193
54.208	2208
54.216	2216
54.224	2220
54.232	2221
54.24	2217
54.248	2207.99999999999
54.256	2196
54.264	2181
54.272	2164
54.28	2147
54.288	2129.99999999998
54.296	2112
54.304	2097
54.312	2083
54.32	2070
54.328	2058
54.336	2047
54.344	2039
54.352	2034
54.36	2031
54.368	2030
54.376	2029
54.384	2029
54.392	2027
54.4	2024
54.408	2022
54.416	2021
54.424	2021
54.432	2019
54.44	2016
54.448	2014
54.456	2011
54.464	2008
54.472	2005
54.48	2001
54.488	1997
54.496	1993
54.504	1988
54.512	1984
54.52	1982
54.528	1979
54.536	1974
54.544	1966.99999999999
54.552	1961
54.56	1957
54.568	1953
54.576	1947
54.584	1941
54.592	1935
54.6	1928
54.608	1919.99999999999
54.616	1913
54.624	1905
54.632	1896
54.64	1888
54.648	1880
54.656	1872
54.664	1865
54.672	1858.99999999999
54.68	1852
54.688	1845
54.696	1837
54.704	1828
54.712	1822
54.72	1817
54.728	1813
54.736	1811
54.744	1808
54.752	1804
54.76	1802
54.768	1801
54.776	1803
54.784	1806
54.792	1809
54.8	1813
54.808	1815
54.816	1814
54.824	1811
54.832	1810
54.84	1809
54.848	1809
54.856	1811
54.864	1815
54.872	1818
54.88	1821
54.888	1827
54.896	1832
54.904	1835
54.912	1840
54.92	1846
54.928	1856.00000000001
54.936	1873
54.944	1897
54.952	1928
54.96	1964
54.968	2002
54.976	2040
54.984	2076
54.992	2109.00000000003
55	2140
55.008	2169
55.016	2196
55.024	2217
55.032	2235.00000000001
55.04	2248
55.048	2254
55.056	2255
55.064	2251
55.072	2244
55.08	2236
55.088	2227
55.096	2215.99999999999
55.104	2203
55.112	2191
55.12	2177.99999999999
55.128	2164
55.136	2150
55.144	2138
55.152	2129
55.16	2118.99999999999
55.168	2109
55.176	2101
55.184	2091.99999999999
55.192	2084
55.2	2078
55.208	2071
55.216	2066
55.224	2063
55.232	2062
55.24	2061
55.248	2059
55.256	2055
55.264	2052
55.272	2048
55.28	2042
55.288	2036
55.296	2032
55.304	2030
55.312	2029
55.32	2029
55.328	2029
55.336	2029
55.344	2029
55.352	2029
55.36	2029
55.368	2029
55.376	2029
55.384	2029
55.392	2029
55.4	2029
55.408	2029
55.416	2029
55.424	2029
55.432	2029
55.44	2029
55.448	2029
55.456	2029
55.464	2029
55.472	2029
55.48	2029
55.488	2029
55.496	2029
55.504	2029
55.512	2029
55.52	2029
55.528	2029
55.536	2029
55.544	2029
55.552	2032
55.56	2036
55.568	2038
55.576	2039
55.584	2040
55.592	2040
55.6	2040
55.608	2040
55.616	2040
55.624	2040
55.632	2040
55.64	2040
55.648	2040
55.656	2040
55.664	2040
55.672	2040
55.68	2043
55.688	2048
55.696	2050
55.704	2051
55.712	2052
55.72	2052
55.728	2055
55.736	2066.00000000001
55.744	2083
55.752	2109
55.76	2147
55.768	2195
55.776	2251
55.784	2313
55.792	2375
55.8	2438.00000000006
55.808	2501
55.816	2564
55.824	2626
55.832	2680
55.84	2725
55.848	2762
55.856	2788
55.864	2807.00000000001
55.872	2820
55.88	2823
55.888	2816
55.896	2798
55.904	2775
55.912	2750
55.92	2717
55.928	2677.99999999996
55.936	2632
55.944	2583
55.952	2539
55.96	2500
55.968	2463
55.976	2433
55.984	2412
55.992	2392.99999999998
56	2376
56.008	2358
56.016	2334
56.024	2308
56.032	2283.99999999998
56.04	2260
56.048	2236
56.056	2215.99999999998
56.064	2201
56.072	2188
56.08	2172
56.088	2155
56.096	2138.99999999998
56.104	2117
56.112	2091
56.12	2065.99999999998
56.128	2042
56.136	2019
56.144	1996
56.152	1973
56.16	1950.99999999998
56.168	1931
56.176	1912
56.184	1892.99999999998
56.192	1876
56.2	1856
56.208	1837
56.216	1819
56.224	1798.99999999998
56.232	1778
56.24	1755
56.248	1731.99999999998
56.256	1712
56.264	1700
56.272	1694
56.28	1688
56.288	1682
56.296	1679
56.304	1675
56.312	1670
56.32	1664
56.328	1655
56.336	1645
56.344	1637
56.352	1631
56.36	1626
56.368	1620
56.376	1614
56.384	1608
56.392	1602
56.4	1599
56.408	1595
56.416	1590
56.424	1590
56.432	1593
56.44	1595
56.448	1593
56.456	1589
56.464	1584
56.472	1578
56.48	1571.99999999999
56.488	1563
56.496	1556
56.504	1552
56.512	1550
56.52	1549
56.528	1549
56.536	1549
56.544	1546
56.552	1541
56.56	1539
56.568	1541
56.576	1548
56.584	1557
56.592	1571
56.6	1590
56.608	1613.00000000002
56.616	1642
56.624	1673
56.632	1706
56.64	1739
56.648	1776
56.656	1814
56.664	1853
56.672	1893.00000000003
56.68	1927
56.688	1956
56.696	1982
56.704	2003
56.712	2016
56.72	2022
56.728	2025
56.736	2025
56.744	2020
56.752	2008
56.76	1993
56.768	1977
56.776	1961
56.784	1945
56.792	1928
56.8	1912.99999999999
56.808	1900
56.816	1884
56.824	1868
56.832	1855
56.84	1846
56.848	1838
56.856	1828
56.864	1820
56.872	1816
56.88	1811
56.888	1806
56.896	1800
56.904	1794
56.912	1788
56.92	1782
56.928	1777
56.936	1773
56.944	1768
56.952	1759
56.96	1749
56.968	1738
56.976	1726
56.984	1714
56.992	1702.99999999999
57	1696
57.008	1692
57.016	1690
57.024	1689
57.032	1689
57.04	1689
57.048	1689
57.056	1689
57.064	1689
57.072	1689
57.08	1689
57.088	1689
57.096	1689
57.104	1689
57.112	1689
57.12	1689
57.128	1689
57.136	1689
57.144	1689
57.152	1689
57.16	1689
57.168	1689
57.176	1689
57.184	1689
57.192	1689
57.2	1689
57.208	1689
57.216	1689
57.224	1689
57.232	1689
57.24	1689
57.248	1689
57.256	1689
57.264	1689
57.272	1689
57.28	1689
57.288	1689
57.296	1689
57.304	1689
57.312	1689
57.32	1689
57.328	1689
57.336	1689
57.344	1689
57.352	1689
57.36	1689
57.368	1689
57.376	1689
57.384	1689
57.392	1689
57.4	1691
57.408	1697
57.416	1706.00000000001
57.424	1719
57.432	1740
57.44	1767
57.448	1799
57.456	1835
57.464	1878
57.472	1928
57.48	1976.00000000004
57.488	2020
57.496	2062
57.504	2100
57.512	2134
57.52	2160
57.528	2181
57.536	2197
57.544	2208.00000000001
57.552	2216
57.56	2217
57.568	2212
57.576	2201
57.584	2182
57.592	2155
57.6	2102
57.608	2038.99999999996
57.616	2003
57.624	1982
57.632	1967
57.64	1957
57.648	1949
57.656	1941
57.664	1933
57.672	1925.99999999999
57.68	1921
57.688	1917
57.696	1913
57.704	1911
57.712	1910
57.72	1909
57.728	1909
57.736	1909
57.744	1907
57.752	1904
57.76	1902
57.768	1900
57.776	1898
57.784	1895
57.792	1890
57.8	1885
57.808	1882
57.816	1879
57.824	1876
57.832	1872
57.84	1870
57.848	1867
57.856	1859
57.864	1852.99999999999
57.872	1846
57.88	1834
57.888	1827
57.896	1820
57.904	1811
57.912	1806
57.92	1799
57.928	1786.99999999999
57.936	1783
57.944	1778
57.952	1769
57.96	1765
57.968	1761
57.976	1757
57.984	1755
57.992	1754
58	1753
58.008	1753
58.016	1753
58.024	1753
58.032	1753
58.04	1753
58.048	1753
58.056	1753
58.064	1753
58.072	1753
58.08	1753
58.088	1753
58.096	1753
58.104	1753
58.112	1753
58.12	1753
58.128	1753
58.136	1753
58.144	1753
58.152	1753
58.16	1753
58.168	1755
58.176	1758
58.184	1759
58.192	1760
58.2	1761
58.208	1765
58.216	1772
58.224	1782.00000000001
58.232	1798
58.24	1819
58.248	1843.00000000002
58.256	1871
58.264	1902
58.272	1934
58.28	1966
58.288	1995.00000000003
58.296	2023
58.304	2049
58.312	2074.00000000002
58.32	2096
58.328	2114
58.336	2129
58.344	2140
58.352	2145
58.36	2145
58.368	2141
58.376	2132
58.384	2119
58.392	2106
58.4	2090
58.408	2072
58.416	2054.99999999999
58.424	2039
58.432	2022
58.44	2006
58.448	1991
58.456	1979
58.464	1970
58.472	1961
58.48	1953.99999999999
58.488	1949
58.496	1945
58.504	1939
58.512	1934
58.52	1931
58.528	1930
58.536	1927
58.544	1924
58.552	1922
58.56	1921
58.568	1920
58.576	1918
58.584	1915
58.592	1910
58.6	1904
58.608	1900
58.616	1896
58.624	1890
58.632	1884
58.64	1880
58.648	1876
58.656	1870
58.664	1863
58.672	1856.99999999999
58.68	1851
58.688	1844
58.696	1837
58.704	1833
58.712	1829
58.72	1823
58.728	1818
58.736	1814
58.744	1811
58.752	1808
58.76	1802
58.768	1797
58.776	1792
58.784	1784
58.792	1776
58.8	1769
58.808	1765
58.816	1761
58.824	1757
58.832	1755
58.84	1754
58.848	1753
58.856	1753
58.864	1753
58.872	1753
58.88	1753
58.888	1753
58.896	1753
58.904	1753
58.912	1753
58.92	1753
58.928	1753
58.936	1752
58.944	1750
58.952	1749
58.96	1749
58.968	1747
58.976	1746
58.984	1747
58.992	1749
59	1751
59.008	1752
59.016	1752
59.024	1752
59.032	1752
59.04	1754
59.048	1760
59.056	1771.00000000001
59.064	1787
59.072	1807
59.08	1833
59.088	1865
59.096	1899.00000000003
59.104	1933
59.112	1966
59.12	1997.00000000003
59.128	2028
59.136	2057
59.144	2084
59.152	2107
59.16	2127.00000000002
59.168	2144
59.176	2157
59.184	2165
59.192	2168
59.2	2168
59.208	2164
59.216	2155
59.224	2143.99999999999
59.232	2129
59.24	2112
59.248	2092.99999999998
59.256	2074
59.264	2056
59.272	2040
59.28	2027
59.288	2017.99999999999
59.296	2009
59.304	2000
59.312	1989.99999999999
59.32	1980
59.328	1970
59.336	1963
59.344	1958
59.352	1953
59.36	1951
59.368	1950
59.376	1951
59.384	1954
59.392	1957
59.4	1961
59.408	1963
59.416	1964
59.424	1962
59.432	1959
59.44	1956
59.448	1951
59.456	1946
59.464	1941
59.472	1939
59.48	1938
59.488	1937
59.496	1939
59.504	1943
59.512	1946
59.52	1949
59.528	1953
59.536	1955
59.544	1956
59.552	1956
59.56	1954
59.568	1951
59.576	1950
59.584	1949
59.592	1949
59.6	1951
59.608	1956.00000000001
59.616	1984
59.624	2022
59.632	2041
59.64	2051
59.648	2056
59.656	2058
59.664	2059
59.672	2060
59.68	2060
59.688	2060
59.696	2060
59.704	2060
59.712	2060
59.72	2060
59.728	2060
59.736	2060
59.744	2060
59.752	2060
59.76	2060
59.768	2060
59.776	2060
59.784	2060
59.792	2060
59.8	2060
59.808	2060
59.816	2060
59.824	2060
59.832	2060
59.84	2060
59.848	2063
59.856	2071
59.864	2081.00000000001
59.872	2095
59.88	2117
59.888	2149
59.896	2192
59.904	2246
59.912	2309
59.92	2377
59.928	2447.00000000006
59.936	2521
59.944	2594
59.952	2663
59.96	2728
59.968	2781
59.976	2826
59.984	2863
59.992	2891.00000000002
60	2908
60.008	2916
60.016	2917
60.024	2912
60.032	2896.99999999998
60.04	2872
60.048	2844
60.056	2814.99999999997
60.064	2783
60.072	2746
60.08	2706
60.088	2665
60.096	2623.99999999997
60.104	2588
60.112	2555
60.12	2523.99999999997
60.128	2496
60.136	2470
60.144	2448
60.152	2428
60.16	2405.99999999998
60.168	2386
60.176	2367
60.184	2348.99999999999
60.192	2334
60.2	2317
60.208	2297
60.216	2278
60.224	2258.99999999998
60.232	2238
60.24	2215
60.248	2191.99999999998
60.256	2168
60.264	2144
60.272	2120
60.28	2096
60.288	2074.99999999998
60.296	2059
60.304	2045
60.312	2028.99999999999
60.32	2012
60.328	1994
60.336	1976
60.344	1958
60.352	1936.99999999998
60.36	1918
60.368	1899
60.376	1880.99999999998
60.384	1863
60.392	1842
60.4	1822
60.408	1803
60.416	1781.99999999998
60.424	1759
60.432	1736
60.44	1715
60.448	1699
60.456	1685
60.464	1672
60.472	1659
60.48	1649.99999999999
60.488	1642
60.496	1632
60.504	1621
60.512	1610
60.52	1598
60.528	1586
60.536	1574
60.544	1561.99999999999
60.552	1553
60.56	1549
60.568	1547
60.576	1543
60.584	1538
60.592	1532
60.6	1523
60.608	1515.99999999999
60.616	1509
60.624	1500
60.632	1492
60.64	1488
60.648	1486
60.656	1485
60.664	1485
60.672	1485
60.68	1485
60.688	1485
60.696	1485
60.704	1488
60.712	1495
60.72	1508
60.728	1526
60.736	1547.00000000002
60.744	1576
60.752	1611
60.76	1647
60.768	1683
60.776	1722
60.784	1762
60.792	1800
60.8	1834.00000000003
60.808	1866
60.816	1897
60.824	1925
60.832	1948
60.84	1965
60.848	1977
60.856	1983
60.864	1983
60.872	1974
60.88	1957
60.888	1937
60.896	1915
60.904	1889
60.912	1861
60.92	1835
60.928	1812.99999999998
60.936	1793
60.944	1774
60.952	1758
60.96	1744
60.968	1731
60.976	1722
60.984	1714
60.992	1706.99999999999
61	1701
61.008	1695
61.016	1692
61.024	1690
61.032	1689
61.04	1689
61.048	1689
61.056	1689
61.064	1689
61.072	1689
61.08	1689
61.088	1689
61.096	1689
61.104	1689
61.112	1689
61.12	1689
61.128	1689
61.136	1689
61.144	1689
61.152	1689
61.16	1689
61.168	1686
61.176	1681
61.184	1679
61.192	1678
61.2	1674
61.208	1669
61.216	1667
61.224	1666
61.232	1665
61.24	1665
61.248	1665
61.256	1665
61.264	1665
61.272	1665
61.28	1662
61.288	1657
61.296	1655
61.304	1657
61.312	1661
61.32	1663
61.328	1664
61.336	1664
61.344	1664
61.352	1664
61.36	1667
61.368	1672
61.376	1674
61.384	1675
61.392	1679
61.4	1684
61.408	1686
61.416	1687
61.424	1688
61.432	1688
61.44	1688
61.448	1688
61.456	1688
61.464	1688
61.472	1688
61.48	1688
61.488	1688
61.496	1688
61.504	1691
61.512	1693
61.52	1691
61.528	1690
61.536	1689
61.544	1692
61.552	1699
61.56	1712
61.568	1730
61.576	1754
61.584	1784
61.592	1820
61.6	1862
61.608	1910.00000000004
61.616	1961
61.624	2008
61.632	2049
61.64	2088
61.648	2122
61.656	2151
61.664	2136
61.672	2093.99999999998
61.68	2075
61.688	2064
61.696	2052
61.704	2038
61.712	2024
61.72	2008
61.728	1988
61.736	1969.99999999999
61.744	1958
61.752	1949
61.76	1943
61.768	1940
61.776	1936
61.784	1932
61.792	1928
61.8	1921.99999999999
61.808	1915
61.816	1908
61.824	1901
61.832	1897
61.84	1895
61.848	1894
61.856	1893
61.864	1893
61.872	1891
61.88	1888
61.888	1884
61.896	1878
61.904	1873
61.912	1869
61.92	1863
61.928	1855.99999999999
61.936	1848
61.944	1841
61.952	1837
61.96	1833
61.968	1829
61.976	1827
61.984	1824
61.992	1820
62	1818
62.008	1815
62.016	1810
62.024	1805
62.032	1801
62.04	1795
62.048	1789
62.056	1782.99999999999
62.064	1776
62.072	1768
62.08	1760
62.088	1752
62.096	1743.99999999999
62.104	1737
62.112	1733
62.12	1731
62.128	1730
62.136	1729
62.144	1729
62.152	1729
62.16	1729
62.168	1729
62.176	1729
62.184	1729
62.192	1729
62.2	1729
62.208	1729
62.216	1729
62.224	1729
62.232	1729
62.24	1729
62.248	1729
62.256	1729
62.264	1729
62.272	1729
62.28	1729
62.288	1729
62.296	1729
62.304	1729
62.312	1729
62.32	1729
62.328	1729
62.336	1729
62.344	1729
62.352	1730
62.36	1731
62.368	1732
62.376	1734
62.384	1739
62.392	1748
62.4	1761
62.408	1779
62.416	1801.00000000002
62.424	1829
62.432	1862
62.44	1898.00000000003
62.448	1935
62.456	1971
62.464	2006
62.472	2036
62.48	2062.00000000002
62.488	2085
62.496	2102
62.504	2113
62.512	2121
62.52	2125
62.528	2125
62.536	2122
62.544	2116.99999999999
62.552	2109
62.56	2095
62.568	2079
62.576	2062
62.584	2043
62.592	2025
62.6	2007
62.608	1989.99999999999
62.616	1975
62.624	1964
62.632	1955
62.64	1950
62.648	1945
62.656	1941
62.664	1937
62.672	1933
62.68	1931
62.688	1928
62.696	1924
62.704	1922
62.712	1919
62.72	1916
62.728	1912
62.736	1908
62.744	1904
62.752	1899
62.76	1896
62.768	1892
62.776	1888
62.784	1884
62.792	1880
62.8	1876
62.808	1870
62.816	1861
62.824	1851
62.832	1843
62.84	1836
62.848	1830
62.856	1825
62.864	1821
62.872	1817
62.88	1813
62.888	1809
62.896	1803
62.904	1796
62.912	1790
62.92	1786
62.928	1781
62.936	1777
62.944	1773
62.952	1767
62.96	1760
62.968	1752
62.976	1746
62.984	1741
62.992	1737
63	1734
63.008	1731
63.016	1730
63.024	1729
63.032	1729
63.04	1729
63.048	1729
63.056	1729
63.064	1729
63.072	1729
63.08	1729
63.088	1729
63.096	1729
63.104	1729
63.112	1729
63.12	1729
63.128	1729
63.136	1729
63.144	1729
63.152	1729
63.16	1729
63.168	1729
63.176	1729
63.184	1729
63.192	1729
63.2	1729
63.208	1729
63.216	1730
63.224	1737.00000000001
63.232	1753
63.24	1774
63.248	1800.00000000003
63.256	1832
63.264	1869
63.272	1906
63.28	1939
63.288	1969.00000000002
63.296	1995
63.304	2020
63.312	2041.00000000002
63.32	2061
63.328	2079
63.336	2094
63.344	2106
63.352	2113
63.36	2117
63.368	2116
63.376	2109.99999999999
63.384	2099
63.392	2083
63.4	2064
63.408	2042
63.416	2019.99999999998
63.424	1998
63.432	1979
63.44	1964.99999999999
63.448	1955
63.456	1948
63.464	1942
63.472	1937
63.48	1933
63.488	1931
63.496	1928
63.504	1924
63.512	1920
63.52	1916
63.528	1912
63.536	1908
63.544	1906
63.552	1905
63.56	1905
63.568	1905
63.576	1907
63.584	1910
63.592	1911
63.6	1910
63.608	1905
63.616	1900
63.624	1894
63.632	1887
63.64	1882
63.648	1877
63.656	1873
63.664	1871
63.672	1870
63.68	1869
63.688	1869
63.696	1867
63.704	1864
63.712	1875
63.72	1891
63.728	1896
63.736	1898
63.744	1899
63.752	1903
63.76	1908
63.768	1910
63.776	1911
63.784	1916
63.792	1922
63.8	1925
63.808	1927
63.816	1932
63.824	1938
63.832	1945
63.84	1953
63.848	1957
63.856	1962
63.864	1967.00000000001
63.872	1974
63.88	1985
63.888	2002
63.896	2021
63.904	2039
63.912	2056
63.92	2071
63.928	2082.00000000001
63.936	2087
63.944	2090
63.952	2091
63.96	2092
63.968	2096
63.976	2102
63.984	2105
63.992	2107
64	2108
64.008	2108
64.016	2108
64.024	2108
64.032	2115
64.04	2134
64.048	2162
64.056	2202
64.064	2252.0000000001
64.072	2311
64.08	2382
64.088	2458.00000000014
64.096	2537
64.104	2622
64.112	2705
64.12	2784
64.128	2861
64.136	2930
64.144	2986
64.152	3029
64.16	3058
64.168	3075
64.176	3084
64.184	3085
64.192	3074.99999999998
64.2	3058
64.208	3038
64.216	3009.99999999995
64.224	2977
64.232	2942
64.24	2906
64.248	2873
64.256	2838
64.264	2802
64.272	2769
64.28	2738
64.288	2703
64.296	2667
64.304	2631
64.312	2598
64.32	2572.99999999997
64.328	2557
64.336	2546
64.344	2536.99999999998
64.352	2529
64.36	2517
64.368	2503
64.376	2485
64.384	2465
64.392	2444
64.4	2422
64.408	2399
64.416	2373
64.424	2349
64.432	2326
64.44	2303
64.448	2280.99999999996
64.456	2255
64.464	2227
64.472	2197.99999999995
64.48	2168
64.488	2142
64.496	2121
64.504	2104
64.512	2088
64.52	2072
64.528	2056
64.536	2044
64.544	2038
64.552	2032
64.56	2026
64.568	2019
64.576	2007.99999999998
64.584	1994
64.592	1980
64.6	1966
64.608	1951
64.616	1936
64.624	1917
64.632	1897
64.64	1880
64.648	1860
64.656	1838
64.664	1816
64.672	1794
64.68	1775
64.688	1755
64.696	1734
64.704	1711.99999999996
64.712	1690
64.72	1671
64.728	1658
64.736	1651
64.744	1648
64.752	1646
64.76	1645
64.768	1642
64.776	1637
64.784	1631
64.792	1620
64.8	1607
64.808	1594
64.816	1583
64.824	1574
64.832	1565
64.84	1565
64.848	1569
64.856	1575
64.864	1585
64.872	1593
64.88	1601
64.888	1613
64.896	1626
64.904	1639
64.912	1657
64.92	1685
64.928	1722
64.936	1766
64.944	1818
64.952	1870
64.96	1922.00000000009
64.968	1974
64.976	2019
64.984	2057
64.992	2087
65	2106
65.008	2115
65.016	2116
65.024	2108
65.032	2097
65.04	2081
65.048	2061
65.056	2036
65.064	2004.99999999994
65.072	1971
65.08	1935
65.088	1902.99999999994
65.096	1868
65.104	1831
65.112	1798
65.12	1770
65.128	1745
65.136	1721
65.144	1698
65.152	1675
65.16	1657
65.168	1645
65.176	1639
65.184	1636
65.192	1634
65.2	1633
65.208	1633
65.216	1633
65.224	1636
65.232	1640
65.24	1642
65.248	1643
65.256	1644
65.264	1644
65.272	1644
65.28	1644
65.288	1644
65.296	1644
65.304	1644
65.312	1641
65.32	1637
65.328	1635
65.336	1630
65.344	1623
65.352	1624
65.36	1628
65.368	1633
65.376	1639
65.384	1642
65.392	1643
65.4	1641
65.408	1637
65.416	1635
65.424	1634
65.432	1633
65.44	1636
65.448	1640
65.456	1639
65.464	1636
65.472	1633.99999999999
65.48	1629
65.488	1623
65.496	1620
65.504	1618
65.512	1617
65.52	1617
65.528	1617
65.536	1617
65.544	1617
65.552	1621
65.56	1627
65.568	1630
65.576	1634.00000000001
65.584	1639
65.592	1642
65.6	1643
65.608	1644
65.616	1644
65.624	1644
65.632	1644
65.64	1644
65.648	1644
65.656	1644
65.664	1644
65.672	1644
65.68	1644
65.688	1644
65.696	1644
65.704	1644
65.712	1648
65.72	1658
65.728	1670
65.736	1691
65.744	1725
65.752	1764
65.76	1793
65.768	1814
65.776	1837
65.784	1864
65.792	1894
65.8	1922
65.808	1945
65.816	1965
65.824	1981
65.832	1993.00000000002
65.84	2001
65.848	2005
65.856	2005
65.864	2001
65.872	1993
65.88	1981
65.888	1966
65.896	1951
65.904	1938
65.912	1925
65.92	1914
65.928	1903
65.936	1894
65.944	1885
65.952	1877
65.96	1868.99999999999
65.968	1861
65.976	1854
65.984	1847
65.992	1842
66	1837
66.008	1833
66.016	1829
66.024	1825
66.032	1821
66.04	1817
66.048	1813
66.056	1809
66.064	1804.99999999999
66.072	1801
66.08	1798
66.088	1792.99999999999
66.096	1789
66.104	1785
66.112	1779
66.12	1774
66.128	1769
66.136	1763
66.144	1756
66.152	1748
66.16	1741
66.168	1735
66.176	1728
66.184	1720
66.192	1713.99999999999
66.2	1711
66.208	1710
66.216	1709
66.224	1709
66.232	1709
66.24	1709
66.248	1709
66.256	1709
66.264	1709
66.272	1709
66.28	1709
66.288	1709
66.296	1709
66.304	1709
66.312	1709
66.32	1709
66.328	1709
66.336	1709
66.344	1709
66.352	1709
66.36	1709
66.368	1709
66.376	1709
66.384	1709
66.392	1709
66.4	1709
66.408	1709
66.416	1709
66.424	1709
66.432	1709
66.44	1709
66.448	1709
66.456	1709
66.464	1709
66.472	1709
66.48	1709
66.488	1709
66.496	1709
66.504	1709
66.512	1709
66.52	1709
66.528	1709
66.536	1709
66.544	1711
66.552	1716
66.56	1723
66.568	1736
66.576	1754.00000000004
66.584	1776
66.592	1802
66.6	1832
66.608	1865
66.616	1899
66.624	1929
66.632	1957
66.64	1984
66.648	2008
66.656	2030
66.664	2048
66.672	2062
66.68	2073
66.688	2083
66.696	2088
66.704	2085.99999999999
66.712	2081
66.72	2072
66.728	2058
66.736	2041
66.744	2022
66.752	2003
66.76	1986
66.768	1970
66.776	1957
66.784	1949
66.792	1943
66.8	1936
66.808	1928
66.816	1922
66.824	1917
66.832	1910.99999999999
66.84	1906
66.848	1902
66.856	1899
66.864	1898
66.872	1895
66.88	1892
66.888	1888
66.896	1882
66.904	1875
66.912	1868
66.92	1862
66.928	1857
66.936	1852
66.944	1846
66.952	1839
66.96	1831.99999999999
66.968	1824
66.976	1816
66.984	1810
66.992	1804
67	1796
67.008	1788
67.016	1778
67.024	1767
67.032	1756
67.04	1745
67.048	1739
67.056	1734
67.064	1728.99999999999
67.072	1725
67.08	1721
67.088	1716.99999999999
67.096	1713
67.104	1711
67.112	1710
67.12	1709
67.128	1709
67.136	1707
67.144	1704
67.152	1702
67.16	1701
67.168	1701
67.176	1703
67.184	1706
67.192	1707
67.2	1708
67.208	1708
67.216	1708
67.224	1708
67.232	1708
67.24	1708
67.248	1708
67.256	1708
67.264	1708
67.272	1708
67.28	1708
67.288	1708
67.296	1708
67.304	1708
67.312	1708
67.32	1708
67.328	1708
67.336	1708
67.344	1708
67.352	1708
67.36	1708
67.368	1708
67.376	1710
67.384	1715
67.392	1723
67.4	1736
67.408	1756
67.416	1783
67.424	1815
67.432	1849
67.44	1885
67.448	1920.00000000006
67.456	1952
67.464	1981
67.472	2007.00000000004
67.48	2031
67.488	2054
67.496	2075
67.504	2092
67.512	2104
67.52	2113
67.528	2118
67.536	2117
67.544	2109
67.552	2095
67.56	2079
67.568	2060
67.576	2036.99999999996
67.584	2015
67.592	1994
67.6	1972
67.608	1954
67.616	1941
67.624	1931
67.632	1922
67.64	1913
67.648	1906
67.656	1899
67.664	1892
67.672	1886
67.68	1881
67.688	1877
67.696	1873
67.704	1869
67.712	1867
67.72	1866
67.728	1865
67.736	1863
67.744	1860
67.752	1856
67.76	1851
67.768	1846
67.776	1839
67.784	1832
67.792	1826
67.8	1821
67.808	1830
67.816	1843
67.824	1846
67.832	1844
67.84	1840
67.848	1835
67.856	1827
67.864	1817
67.872	1805
67.88	1792
67.888	1779
67.896	1767
67.904	1755
67.912	1742
67.92	1728
67.928	1718
67.936	1713
67.944	1708
67.952	1702
67.96	1699
67.968	1698
67.976	1697
67.984	1697
67.992	1697
68	1697
68.008	1697
68.016	1697
68.024	1700
68.032	1706
68.04	1712
68.048	1716
68.056	1723
68.064	1730.00000000001
68.072	1736
68.08	1742
68.088	1748.00000000001
68.096	1754
68.104	1760
68.112	1769
68.12	1781
68.128	1791
68.136	1799
68.144	1809
68.152	1820
68.16	1831
68.168	1844
68.176	1860
68.184	1877
68.192	1899.00000000004
68.2	1926
68.208	1955
68.216	2013.00000000009
68.224	2056
68.232	2106
68.24	2239
68.248	2319
68.256	2403
68.264	2558
68.272	2625
68.28	2685
68.288	2765
68.296	2807
68.304	2837
68.312	2859
68.32	2870
68.328	2871
68.336	2866
68.344	2850.99999999997
68.352	2831
68.36	2808
68.368	2780
68.376	2747
68.384	2712
68.392	2674
68.4	2636
68.408	2598
68.416	2560
68.424	2525
68.432	2498
68.44	2478
68.448	2461.99999999997
68.456	2447
68.464	2436
68.472	2426.99999999999
68.48	2420
68.488	2413
68.496	2407
68.504	2404
68.512	2399
68.52	2394
68.528	2388
68.536	2382
68.544	2375
68.552	2365
68.56	2354
68.568	2342
68.576	2329.99999999998
68.584	2317
68.592	2301
68.6	2283.99999999997
68.608	2265
68.616	2246
68.624	2230
68.632	2216
68.64	2203
68.648	2187
68.656	2169
68.664	2151
68.672	2129
68.68	2108
68.688	2091
68.696	2077
68.704	2062.99999999997
68.712	2046
68.72	2028
68.728	2013
68.736	2003
68.744	1994
68.752	1985
68.76	1978
68.768	1971
68.776	1962
68.784	1948
68.792	1934
68.8	1920
68.808	1907
68.816	1898
68.824	1890
68.832	1879.99999999998
68.84	1872
68.848	1864
68.856	1853
68.864	1842
68.872	1830
68.88	1821
68.888	1814
68.896	1803
68.904	1791
68.912	1779
68.92	1764
68.928	1743
68.936	1723
68.944	1710
68.952	1703
68.96	1700
68.968	1698
68.976	1697
68.984	1697
68.992	1697
69	1697
69.008	1697
69.016	1697
69.024	1700
69.032	1707
69.04	1721
69.048	1741
69.056	1767
69.064	1803.00000000007
69.072	1843
69.08	1885
69.088	1929.00000000008
69.096	1973
69.104	2020
69.112	2063
69.12	2095
69.128	2117
69.136	2131
69.144	2138
69.152	2135
69.16	2121
69.168	2104
69.176	2086
69.184	2064
69.192	2036.99999999995
69.2	2008
69.208	1977
69.216	1945.99999999994
69.224	1914
69.232	1882
69.24	1853
69.248	1826
69.256	1802
69.264	1781
69.272	1758
69.28	1736
69.288	1719
69.296	1708
69.304	1702
69.312	1699
69.32	1698
69.328	1694
69.336	1689
69.344	1687
69.352	1683
69.36	1675
69.368	1668
69.376	1660
69.384	1652
69.392	1648
69.4	1643
69.408	1638
69.416	1635
69.424	1634
69.432	1633
69.44	1630
69.448	1624.99999999999
69.456	1623
69.464	1625
69.472	1629
69.48	1631
69.488	1632
69.496	1632
69.504	1632
69.512	1632
69.52	1632
69.528	1632
69.536	1629
69.544	1625
69.552	1623
69.56	1625
69.568	1629
69.576	1631
69.584	1632
69.592	1632
69.6	1632
69.608	1629
69.616	1625
69.624	1623
69.632	1622
69.64	1621
69.648	1621
69.656	1621
69.664	1618
69.672	1613
69.68	1611
69.688	1610
69.696	1609
69.704	1609
69.712	1609
69.72	1609
69.728	1609
69.736	1606
69.744	1601
69.752	1599
69.76	1598
69.768	1597
69.776	1597
69.784	1597
69.792	1597
69.8	1600
69.808	1604
69.816	1606
69.824	1623
69.832	1650.00000000004
69.84	1667
69.848	1682
69.856	1694
69.864	1705
69.872	1717
69.88	1731
69.888	1747
69.896	1764
69.904	1784
69.912	1807
69.92	1834
69.928	1863
69.936	1895
69.944	1924
69.952	1946
69.96	1965.00000000003
69.968	1980
69.976	1988
69.984	1991
69.992	1990
70	1985
70.008	1977
70.016	1967
70.024	1958
70.032	1947
70.04	1935
70.048	1922
70.056	1909
70.064	1896.99999999998
70.072	1885
70.08	1875
70.088	1865.99999999998
70.096	1857
70.104	1850
70.112	1845
70.12	1841
70.128	1837
70.136	1833
70.144	1829
70.152	1827
70.16	1826
70.168	1823
70.176	1818
70.184	1813
70.192	1808.99999999999
70.2	1803
70.208	1798
70.216	1792.99999999999
70.224	1787
70.232	1782
70.24	1777
70.248	1772
70.256	1766
70.264	1761
70.272	1757
70.28	1751
70.288	1746
70.296	1741
70.304	1735
70.312	1728
70.32	1721.99999999999
70.328	1719
70.336	1718
70.344	1717
70.352	1717
70.36	1719
70.368	1722
70.376	1723
70.384	1724
70.392	1724
70.4	1724
70.408	1724
70.416	1724
70.424	1724
70.432	1724
70.44	1724
70.448	1724
70.456	1724
70.464	1724
70.472	1724
70.48	1724
70.488	1724
70.496	1724
70.504	1724
70.512	1724
70.52	1724
70.528	1724
70.536	1724
70.544	1724
70.552	1724
70.56	1724
70.568	1724
70.576	1724
70.584	1724
70.592	1724
70.6	1724
70.608	1724
70.616	1724
70.624	1724
70.632	1724
70.64	1724
70.648	1724
70.656	1724
70.664	1724
70.672	1724
70.68	1724
70.688	1726
70.696	1733
70.704	1745.00000000002
70.712	1760
70.72	1778
70.728	1801
70.736	1830
70.744	1863
70.752	1897
70.76	1929
70.768	1958
70.776	1981
70.784	2003
70.792	2024
70.8	2040
70.808	2053
70.816	2063
70.824	2068
70.832	2070
70.84	2068
70.848	2062
70.856	2051
70.864	2036
70.872	2019
70.88	2000
70.888	1982
70.896	1967
70.904	1954
70.912	1943
70.92	1934
70.928	1927
70.936	1923
70.944	1920
70.952	1916
70.96	1911.99999999999
70.968	1908
70.976	1904
70.984	1900
70.992	1896
71	1892
71.008	1888
71.016	1886
71.024	1883
71.032	1880
71.04	1878
71.048	1875
71.056	1872
71.064	1867.99999999999
71.072	1862
71.08	1857
71.088	1852.99999999999
71.096	1848
71.104	1844
71.112	1840
71.12	1834
71.128	1827
71.136	1820
71.144	1812
71.152	1804
71.16	1794
71.168	1785
71.176	1779
71.184	1773
71.192	1768.99999999999
71.2	1765
71.208	1759
71.216	1751.99999999999
71.224	1744
71.232	1736
71.24	1730
71.248	1727
71.256	1726
71.264	1725
71.272	1725
71.28	1725
71.288	1725
71.296	1723
71.304	1720
71.312	1720
71.32	1722
71.328	1723
71.336	1724
71.344	1724
71.352	1724
71.36	1724
71.368	1724
71.376	1724
71.384	1724
71.392	1724
71.4	1724
71.408	1724
71.416	1724
71.424	1724
71.432	1724
71.44	1724
71.448	1724
71.456	1724
71.464	1724
71.472	1724
71.48	1724
71.488	1724
71.496	1724
71.504	1724
71.512	1726
71.52	1731
71.528	1740
71.536	1753
71.544	1773
71.552	1800
71.56	1832
71.568	1867
71.576	1904.00000000006
71.584	1940
71.592	1973
71.6	2005.00000000005
71.608	2034
71.616	2059
71.624	2084
71.632	2106
71.64	2124
71.648	2138
71.656	2147
71.664	2150
71.672	2148
71.68	2142
71.688	2129
71.696	2113
71.704	2095.99999999997
71.712	2076
71.72	2054
71.728	2031
71.736	2009
71.744	1989
71.752	1973
71.76	1961
71.768	1951
71.776	1944
71.784	1938
71.792	1931
71.8	1926
71.808	1922
71.816	1917
71.824	1911
71.832	1903.99999999999
71.84	1894
71.848	1883
71.856	1874
71.864	1867
71.872	1887
71.88	1917
71.888	1926
71.896	1924
71.904	1917
71.912	1908
71.92	1897
71.928	1886
71.936	1874
71.944	1862
71.952	1850
71.96	1837.99999999998
71.968	1826
71.976	1814
71.984	1802
71.992	1790
72	1781
72.008	1774
72.016	1767
72.024	1761
72.032	1755
72.04	1749
72.048	1743
72.056	1740
72.064	1738
72.072	1734
72.08	1732
72.088	1734
72.096	1735
72.104	1739
72.112	1744
72.12	1746
72.128	1747
72.136	1748
72.144	1748
72.152	1748
72.16	1748
72.168	1748
72.176	1748
72.184	1748
72.192	1748
72.2	1748
72.208	1748
72.216	1751.00000000001
72.224	1756
72.232	1758
72.24	1762
72.248	1767
72.256	1770
72.264	1771
72.272	1772
72.28	1772
72.288	1772
72.296	1772
72.304	1775
72.312	1780
72.32	1788.00000000002
72.328	1801
72.336	1820
72.344	1847.00000000005
72.352	1882
72.36	1926
72.368	1978
72.376	2034
72.384	2095
72.392	2162
72.4	2231
72.408	2302
72.416	2373
72.424	2439
