Time	PPG1
0	1689
0.008	1689
0.016	1689
0.024	1689
0.032	1689
0.04	1689
0.048	1689
0.056	1689
0.064	1689
0.072	1689
0.08	1689
0.088	1687
0.096	1684
0.104	1682
0.112	1683
0.12	1686
0.128	1687
0.136	1688
0.144	1689
0.152	1691
0.16	1692
0.168	1694
0.176	1699
0.184	1708
0.192	1722
0.2	1742
0.208	1768
0.216	1802
0.224	1842
0.232	1884
0.24	1928
0.248	1971
0.256	2011
0.264	2046
0.272	2075
0.28	2100
0.288	2116
0.296	2124
0.304	2128
0.312	2126
0.32	2117
0.328	2105
0.336	2090
0.344	2071
0.352	2048
0.36	2021
0.368	1995
0.376	1969
0.384	1945
0.392	1925
0.4	1907
0.408	1891
0.416	1878
0.424	1867
0.432	1860
0.44	1854
0.448	1849
0.456	1845
0.464	1841
0.472	1837
0.48	1831
0.488	1826
0.496	1821
0.504	1817
0.512	1815
0.52	1814
0.528	1812
0.536	1810
0.544	1807
0.552	1804
0.56	1800
0.568	1794
0.576	1787
0.584	1780
0.592	1772
0.6	1764
0.608	1757
0.616	1751
0.624	1744
0.632	1736
0.64	1728
0.648	1722
0.656	1717
0.664	1711
0.672	1704
0.68	1697
0.688	1693
0.696	1691
0.704	1690
0.712	1689
0.72	1689
0.728	1689
0.736	1689
0.744	1689
0.752	1689
0.76	1689
0.768	1689
0.776	1689
0.784	1689
0.792	1689
0.8	1689
0.808	1689
0.816	1689
0.824	1689
0.832	1689
0.84	1689
0.848	1689
0.856	1689
0.864	1689
0.872	1689
0.88	1689
0.888	1689
0.896	1689
0.904	1689
0.912	1689
0.92	1689
0.928	1689
0.936	1689
0.944	1690
0.952	1691
0.96	1694
0.968	1699
0.976	1706
0.984	1713
0.992	1725
1	1742
1.008	1763
1.016	1793
1.024	1832
1.032	1875
1.04	1922
1.048	1972
1.056	2019
1.064	2062
1.072	2100
1.08	2130
1.088	2149
1.096	2159
1.104	2162
1.112	2159
1.12	2154
1.128	2146
1.136	2133
1.144	2115
1.152	2095
1.16	2070
1.168	2040
1.176	2010
1.184	1980
1.192	1952
1.2	1928
1.208	1908
1.216	1891
1.224	1878
1.232	1867
1.24	1860
1.248	1854
1.256	1847
1.264	1842
1.272	1837
1.28	1833
1.288	1829
1.296	1825
1.304	1823
1.312	1822
1.32	1821
1.328	1821
1.336	1821
1.344	1821
1.352	1819
1.36	1816
1.368	1813
1.376	1825
1.384	1842
1.392	1847
1.4	1847
1.408	1841
1.416	1835
1.424	1829
1.432	1817
1.44	1802
1.448	1788
1.456	1778
1.464	1770
1.472	1760
1.48	1752
1.488	1746
1.496	1738
1.504	1728
1.512	1717
1.52	1706
1.528	1694
1.536	1685
1.544	1681
1.552	1679
1.56	1678
1.568	1677
1.576	1677
1.584	1677
1.592	1677
1.6	1677
1.608	1677
1.616	1677
1.624	1677
1.632	1677
1.64	1677
1.648	1677
1.656	1677
1.664	1677
1.672	1677
1.68	1677
1.688	1677
1.696	1677
1.704	1677
1.712	1677
1.72	1677
1.728	1677
1.736	1677
1.744	1677
1.752	1677
1.76	1677
1.768	1677
1.776	1677
1.784	1680
1.792	1690
1.8	1707
1.808	1733
1.816	1772
1.824	1827
1.832	1896
1.84	1968
1.848	2043
1.856	2120
1.864	2190
1.872	2251
1.88	2306
1.888	2351
1.896	2383
1.904	2402
1.912	2408
1.92	2408
1.928	2405
1.936	2392
1.944	2367
1.952	2334
1.96	2294
1.968	2248
1.976	2198
1.984	2146
1.992	2096
2	2054
2.008	2019
2.016	1990
2.024	1963
2.032	1941
2.04	1924
2.048	1906
2.056	1891
2.064	1881
2.072	1870
2.08	1858
2.088	1849
2.096	1845
2.104	1843
2.112	1842
2.12	1841
2.128	1841
2.136	1841
2.144	1841
2.152	1841
2.16	1838
2.168	1830
2.176	1820
2.184	1809
2.192	1798
2.2	1786
2.208	1777
2.216	1773
2.224	1768
2.232	1762
2.24	1759
2.248	1755
2.256	1750
2.264	1747
2.272	1744
2.28	1740
2.288	1735
2.296	1730
2.304	1727
2.312	1723
2.32	1718
2.328	1715
2.336	1714
2.344	1713
2.352	1713
2.36	1713
2.368	1713
2.376	1713
2.384	1713
2.392	1713
2.4	1713
2.408	1710
2.416	1705
2.424	1700
2.432	1694
2.44	1691
2.448	1690
2.456	1689
2.464	1689
2.472	1689
2.48	1692
2.488	1696
2.496	1698
2.504	1699
2.512	1700
2.52	1700
2.528	1700
2.536	1700
2.544	1701
2.552	1705
2.56	1712
2.568	1748
2.576	1784
2.584	1833
2.592	1931
2.6	2007
2.608	2090
2.616	2178
2.624	2269
2.632	2357
2.64	2433
2.648	2500
2.656	2560
2.664	2611
2.672	2652
2.68	2681
2.688	2699
2.696	2702
2.704	2691
2.712	2671
2.72	2643
2.728	2608
2.736	2564
2.744	2516
2.752	2468
2.76	2423
2.768	2380
2.776	2337
2.784	2301
2.792	2272
2.8	2246
2.808	2224
2.816	2204
2.824	2185
2.832	2170
2.84	2156
2.848	2143
2.856	2134
2.864	2126
2.872	2119
2.88	2116
2.888	2111
2.896	2103
2.904	2096
2.912	2089
2.92	2080
2.928	2066
2.936	2053
2.944	2047
2.952	2041
2.96	2035
2.968	2029
2.976	2023
2.984	2017
2.992	2011
3	2008
3.008	2004
3.016	1997
3.024	1991
3.032	1985
3.04	1976
3.048	1962
3.056	1949
3.064	1940
3.072	1929
3.08	1921
3.088	1917
3.096	1912
3.104	1906
3.112	1903
3.12	1899
3.128	1894
3.136	1888
3.144	1879
3.152	1872
3.16	1865
3.168	1856
3.176	1845
3.184	1834
3.192	1822
3.2	1813
3.208	1806
3.216	1799
3.224	1796
3.232	1791
3.24	1783
3.248	1773
3.256	1762
3.264	1751
3.272	1741
3.28	1730
3.288	1718
3.296	1706
3.304	1694
3.312	1685
3.32	1681
3.328	1679
3.336	1675
3.344	1670
3.352	1670
3.36	1673
3.368	1678
3.376	1686
3.384	1699
3.392	1714
3.4	1732
3.408	1758
3.416	1792
3.424	1833
3.432	1878
3.44	1924
3.448	1969
3.456	2011
3.464	2049
3.472	2081
3.48	2105
3.488	2121
3.496	2129
3.504	2131
3.512	2126
3.52	2113
3.528	2094
3.536	2071
3.544	2045
3.552	2014
3.56	1983
3.568	1953
3.576	1923
3.584	1893
3.592	1863
3.6	1833
3.608	1803
3.616	1777
3.624	1755
3.632	1738
3.64	1725
3.648	1714
3.656	1705
3.664	1699
3.672	1692
3.68	1684
3.688	1678
3.696	1675
3.704	1674
3.712	1673
3.72	1673
3.728	1673
3.736	1673
3.744	1673
3.752	1673
3.76	1673
3.768	1673
3.776	1673
3.784	1673
3.792	1673
3.8	1673
3.808	1673
3.816	1673
3.824	1673
3.832	1673
3.84	1673
3.848	1673
3.856	1671
3.864	1668
3.872	1666
3.88	1663
3.888	1660
3.896	1658
3.904	1657
3.912	1657
3.92	1657
3.928	1657
3.936	1657
3.944	1657
3.952	1657
3.96	1657
3.968	1657
3.976	1657
3.984	1657
3.992	1657
4	1657
4.008	1659
4.016	1662
4.024	1665
4.032	1669
4.04	1671
4.048	1672
4.056	1672
4.064	1672
4.072	1672
4.08	1672
4.088	1672
4.096	1672
4.104	1672
4.112	1672
4.12	1672
4.128	1672
4.136	1672
4.144	1672
4.152	1672
4.16	1672
4.168	1672
4.176	1672
4.184	1674
4.192	1679
4.2	1691
4.208	1710
4.216	1734
4.224	1766
4.232	1803
4.24	1845
4.248	1890
4.256	1932
4.264	1970
4.272	2004
4.28	2032
4.288	2055
4.296	2072
4.304	2080
4.312	2079
4.32	2070
4.328	2057
4.336	2040
4.344	2018
4.352	1994
4.36	1969
4.368	1942
4.376	1913
4.384	1886
4.392	1859
4.4	1833
4.408	1809
4.416	1791
4.424	1778
4.432	1766
4.44	1755
4.448	1746
4.456	1737
4.464	1729
4.472	1721
4.48	1712
4.488	1704
4.496	1698
4.504	1693
4.512	1691
4.52	1690
4.528	1689
4.536	1689
4.544	1687
4.552	1684
4.56	1680
4.568	1676
4.576	1674
4.584	1673
4.592	1673
4.6	1673
4.608	1673
4.616	1673
4.624	1673
4.632	1673
4.64	1673
4.648	1673
4.656	1673
4.664	1671
4.672	1668
4.68	1666
4.688	1665
4.696	1665
4.704	1665
4.712	1665
4.72	1665
4.728	1665
4.736	1663
4.744	1660
4.752	1656
4.76	1652
4.768	1650
4.776	1649
4.784	1651
4.792	1654
4.8	1655
4.808	1656
4.816	1656
4.824	1656
4.832	1656
4.84	1658
4.848	1661
4.856	1665
4.864	1669
4.872	1671
4.88	1672
4.888	1672
4.896	1672
4.904	1672
4.912	1672
4.92	1672
4.928	1672
4.936	1672
4.944	1672
4.952	1672
4.96	1672
4.968	1672
4.976	1672
4.984	1676
4.992	1684
5	1697
5.008	1717
5.016	1742
5.024	1774
5.032	1814
5.04	1860
5.048	1909
5.056	1957
5.064	2002
5.072	2046
5.08	2088
5.088	2124
5.096	2155
5.104	2180
5.112	2194
5.12	2199
5.128	2197
5.136	2187
5.144	2172
5.152	2153
5.16	2129
5.168	2100
5.176	2067
5.184	2034
5.192	1998
5.2	1962
5.208	1931
5.216	1903
5.224	1878
5.232	1859
5.24	1844
5.248	1830
5.256	1818
5.264	1807
5.272	1798
5.28	1789
5.288	1783
5.296	1778
5.304	1771
5.312	1763
5.32	1756
5.328	1752
5.336	1748
5.344	1744
5.352	1742
5.36	1739
5.368	1736
5.376	1732
5.384	1726
5.392	1716
5.4	1704
5.408	1694
5.416	1685
5.424	1679
5.432	1676
5.44	1681
5.448	1691
5.456	1696
5.464	1698
5.472	1699
5.48	1700
5.488	1700
5.496	1700
5.504	1700
5.512	1700
5.52	1700
5.528	1700
5.536	1700
5.544	1700
5.552	1700
5.56	1697
5.568	1693
5.576	1694
5.584	1697
5.592	1699
5.6	1700
5.608	1700
5.616	1700
5.624	1700
5.632	1700
5.64	1700
5.648	1700
5.656	1700
5.664	1700
5.672	1700
5.68	1700
5.688	1700
5.696	1700
5.704	1700
5.712	1700
5.72	1700
5.728	1700
5.736	1700
5.744	1700
5.752	1700
5.76	1700
5.768	1700
5.776	1700
5.784	1700
5.792	1703
5.8	1714
5.808	1731
5.816	1754
5.824	1785
5.832	1831
5.84	1890
5.848	1957
5.856	2032
5.864	2111
5.872	2189
5.88	2260
5.888	2322
5.896	2374
5.904	2412
5.912	2434
5.92	2442
5.928	2440
5.936	2433
5.944	2421
5.952	2400
5.96	2371
5.968	2336
5.976	2295
5.984	2252
5.992	2206
6	2159
6.008	2115
6.016	2076
6.024	2039
6.032	2006
6.04	1980
6.048	1961
6.056	1946
6.064	1932
6.072	1919
6.08	1907
6.088	1898
6.096	1890
6.104	1883
6.112	1874
6.12	1860
6.128	1847
6.136	1832
6.144	1815
6.152	1801
6.16	1788
6.168	1776
6.176	1768
6.184	1761
6.192	1749
6.2	1734
6.208	1720
6.216	1710
6.224	1702
6.232	1692
6.24	1681
6.248	1673
6.256	1669
6.264	1667
6.272	1666
6.28	1665
6.288	1668
6.296	1672
6.304	1677
6.312	1683
6.32	1686
6.328	1687
6.336	1688
6.344	1685
6.352	1681
6.36	1679
6.368	1678
6.376	1680
6.384	1684
6.392	1689
6.4	1695
6.408	1698
6.416	1699
6.424	1700
6.432	1700
6.44	1700
6.448	1700
6.456	1700
6.464	1700
6.472	1700
6.48	1700
6.488	1700
6.496	1700
6.504	1700
6.512	1700
6.52	1700
6.528	1700
6.536	1700
6.544	1700
6.552	1700
6.56	1700
6.568	1700
6.576	1703
6.584	1711
6.592	1724
6.6	1744
6.608	1771
6.616	1809
6.624	1858.00000000001
6.632	1918.00000000001
6.64	1989.00000000001
6.648	2066.00000000001
6.656	2148.00000000001
6.664	2236
6.672	2322
6.68	2401
6.688	2470
6.696	2527
6.704	2577
6.712	2614
6.72	2638
6.728	2653
6.736	2658
6.744	2654
6.752	2640
6.76	2612
6.768	2575
6.776	2531
6.784	2479
6.792	2426
6.8	2375
6.808	2327
6.816	2283
6.824	2243
6.832	2205
6.84	2171
6.848	2145
6.856	2123
6.864	2103
6.872	2087
6.88	2076
6.888	2070
6.896	2067
6.904	2066
6.912	2065
6.92	2065
6.928	2065
6.936	2065
6.944	2065
6.952	2065
6.96	2065
6.968	2065
6.976	2065
6.984	2065
6.992	2065
7	2065
7.008	2065
7.016	2062
7.024	2057
7.032	2055
7.04	2054
7.048	2053
7.056	2053
7.064	2053
7.072	2056
7.08	2060
7.088	2062
7.096	2063
7.104	2064
7.112	2064
7.12	2064
7.128	2061
7.136	2057
7.144	2055
7.152	2054
7.16	2050
7.168	2045
7.176	2043
7.184	2039
7.192	2034
7.2	2031
7.208	2028
7.216	2024
7.224	2019
7.232	2014
7.24	2008
7.248	2002
7.256	1999
7.264	1998
7.272	1994
7.28	1989
7.288	1987
7.296	1986
7.304	1982
7.312	1974
7.32	1964
7.328	1956
7.336	1949
7.344	1943
7.352	1940
7.36	1941
7.368	1945
7.376	1947
7.384	1951
7.392	1959
7.4	1969
7.408	1980
7.416	1996
7.424	2021
7.432	2055
7.44	2099
7.448	2151
7.456	2212
7.464	2283
7.472	2355
7.48	2424
7.488	2436
7.496	2413
7.504	2420
7.512	2437
7.52	2455
7.528	2466
7.536	2469
7.544	2462
7.552	2444
7.56	2419
7.568	2389
7.576	2354
7.584	2314
7.592	2274
7.6	2236
7.608	2196
7.616	2153
7.624	2110
7.632	2068
7.64	2029
7.648	1996
7.656	1970
7.664	1948
7.672	1930
7.68	1914
7.688	1899
7.696	1886
7.704	1872
7.712	1860
7.72	1852
7.728	1846
7.736	1839
7.744	1834
7.752	1828
7.76	1820
7.768	1812
7.776	1804
7.784	1795
7.792	1786
7.8	1777
7.808	1769
7.816	1760
7.824	1750
7.832	1741
7.84	1733
7.848	1724
7.856	1714
7.864	1705
7.872	1699
7.88	1694
7.888	1689
7.896	1687
7.904	1686
7.912	1685
7.92	1682
7.928	1677
7.936	1675
7.944	1674
7.952	1673
7.96	1673
7.968	1673
7.976	1673
7.984	1673
7.992	1673
8	1671
8.008	1668
8.016	1664
8.024	1660
8.032	1658
8.04	1657
8.048	1657
8.056	1657
8.064	1657
8.072	1657
8.08	1657
8.088	1657
8.096	1657
8.104	1659
8.112	1662
8.12	1663
8.128	1664
8.136	1664
8.144	1662
8.152	1659
8.16	1658
8.168	1657
8.176	1659
8.184	1664
8.192	1668
8.2	1673
8.208	1679
8.216	1684
8.224	1688
8.232	1692
8.24	1698
8.248	1710
8.256	1732
8.264	1763
8.272	1802
8.28	1846
8.288	1893
8.296	1940
8.304	1983
8.312	2021
8.32	2051
8.328	2072
8.336	2084
8.344	2090
8.352	2091
8.36	2088
8.368	2082
8.376	2072
8.384	2058
8.392	2042
8.4	2020
8.408	1996
8.416	1970
8.424	1938
8.432	1907
8.44	1879
8.448	1851
8.456	1828
8.464	1812
8.472	1802
8.48	1797
8.488	1795
8.496	1794
8.504	1793
8.512	1790
8.52	1785
8.528	1781
8.536	1775
8.544	1770
8.552	1765
8.56	1758
8.568	1751
8.576	1748
8.584	1746
8.592	1745
8.6	1745
8.608	1743
8.616	1738
8.624	1728
8.632	1714
8.64	1703
8.648	1696
8.656	1690
8.664	1689
8.672	1691
8.68	1692
8.688	1692
8.696	1692
8.704	1692
8.712	1692
8.72	1692
8.728	1692
8.736	1692
8.744	1692
8.752	1692
8.76	1690
8.768	1687
8.776	1686
8.784	1685
8.792	1685
8.8	1685
8.808	1685
8.816	1685
8.824	1685
8.832	1685
8.84	1687
8.848	1690
8.856	1693
8.864	1697
8.872	1699
8.88	1700
8.888	1700
8.896	1700
8.904	1698
8.912	1695
8.92	1694
8.928	1693
8.936	1693
8.944	1693
8.952	1693
8.96	1695
8.968	1698
8.976	1697
8.984	1695
8.992	1694
9	1693
9.008	1693
9.016	1693
9.024	1693
9.032	1695
9.04	1700
9.048	1711
9.056	1733.00000000001
9.064	1762
9.072	1799.00000000001
9.08	1847
9.088	1898.00000000001
9.096	1948
9.104	1995.00000000001
9.112	2037
9.12	2074.00000000001
9.128	2106
9.136	2131
9.144	2148
9.152	2158
9.16	2163
9.168	2166
9.176	2165
9.184	2159
9.192	2145
9.2	2123.99999999999
9.208	2095
9.216	2060.99999999999
9.224	2026
9.232	1992
9.24	1961
9.248	1935
9.256	1913
9.264	1895
9.272	1882
9.28	1870
9.288	1859
9.296	1850
9.304	1843
9.312	1838
9.32	1830
9.328	1821
9.336	1815
9.344	1812
9.352	1810
9.36	1811
9.368	1814
9.376	1815
9.384	1816
9.392	1814
9.4	1811
9.408	1808
9.416	1802
9.424	1794
9.432	1787
9.44	1784
9.448	1780
9.456	1776
9.464	1772
9.472	1766
9.48	1758
9.488	1749
9.496	1741
9.504	1733
9.512	1724
9.52	1716
9.528	1710
9.536	1706
9.544	1703
9.552	1700
9.56	1698
9.568	1697
9.576	1695
9.584	1692
9.592	1690
9.6	1689
9.608	1689
9.616	1689
9.624	1689
9.632	1689
9.64	1691
9.648	1694
9.656	1695
9.664	1696
9.672	1696
9.68	1696
9.688	1696
9.696	1696
9.704	1696
9.712	1696
9.72	1696
9.728	1696
9.736	1696
9.744	1696
9.752	1696
9.76	1696
9.768	1696
9.776	1696
9.784	1696
9.792	1696
9.8	1696
9.808	1696
9.816	1696
9.824	1696
9.832	1698
9.84	1706
9.848	1719
9.856	1738
9.864	1766
9.872	1803
9.88	1847
9.888	1895
9.896	1947
9.904	2000
9.912	2049
9.92	2095
9.928	2139
9.936	2176
9.944	2202
9.952	2221
9.96	2231
9.968	2232
9.976	2228
9.984	2220
9.992	2208
10	2191
10.008	2167.99999999999
10.016	2139
10.024	2107.99999999999
10.032	2076
10.04	2042.99999999999
10.048	2010
10.056	1977.99999999999
10.064	1951
10.072	1930
10.08	1913
10.088	1901
10.096	1891
10.104	1881
10.112	1871
10.12	1862
10.128	1853
10.136	1845
10.144	1839
10.152	1834
10.16	1829
10.168	1827
10.176	1826
10.184	1825
10.192	1823
10.2	1820
10.208	1816
10.216	1810
10.224	1802
10.232	1793
10.24	1787
10.248	1782
10.256	1777
10.264	1773
10.272	1767
10.28	1762
10.288	1757
10.296	1751
10.304	1744
10.312	1736
10.32	1727
10.328	1718
10.336	1709
10.344	1703
10.352	1700
10.36	1698
10.368	1697
10.376	1697
10.384	1697
10.392	1697
10.4	1697
10.408	1697
10.416	1697
10.424	1695
10.432	1690
10.44	1685
10.448	1683
10.456	1682
10.464	1681
10.472	1683
10.48	1686
10.488	1687
10.496	1690
10.504	1691
10.512	1690
10.52	1689
10.528	1687
10.536	1684
10.544	1682
10.552	1681
10.56	1681
10.568	1681
10.576	1681
10.584	1683
10.592	1688
10.6	1692
10.608	1694
10.616	1695
10.624	1696
10.632	1696
10.64	1698
10.648	1706
10.656	1721
10.664	1743
10.672	1773
10.68	1814
10.688	1863
10.696	1917
10.704	1974
10.712	2032
10.72	2088
10.728	2141
10.736	2190
10.744	2229
10.752	2259
10.76	2280
10.768	2292
10.776	2296
10.784	2292
10.792	2282
10.8	2266
10.808	2245
10.816	2223
10.824	2197
10.832	2167
10.84	2135
10.848	2100
10.856	2063
10.864	2028
10.872	1998
10.88	1974
10.888	1955
10.896	1942
10.904	1933
10.912	1927
10.92	1922
10.928	1919
10.936	1918
10.944	1917
10.952	1919
10.96	1922
10.968	1923
10.976	1924
10.984	1924
10.992	1924
11	1924
11.008	1922
11.016	1919
11.024	1916
11.032	1912
11.04	1908
11.048	1904
11.056	1904
11.064	1906
11.072	1907
11.08	1908
11.088	1908
11.096	1906
11.104	1901
11.112	1895
11.12	1888
11.128	1879
11.136	1872
11.144	1868
11.152	1866
11.16	1865
11.168	1865
11.176	1865
11.184	1863
11.192	1860
11.2	1856
11.208	1852
11.216	1850
11.224	1849
11.232	1849
11.24	1849
11.248	1849
11.256	1847
11.264	1844
11.272	1842
11.28	1839
11.288	1836
11.296	1832
11.304	1828
11.312	1826
11.32	1827
11.328	1830
11.336	1833
11.344	1839
11.352	1846
11.36	1851
11.368	1856
11.376	1860
11.384	1862
11.392	1863
11.4	1864
11.408	1864
11.416	1864
11.424	1867
11.432	1874
11.44	1883
11.448	1898
11.456	1918
11.464	1943
11.472	1975
11.48	2014
11.488	2060
11.496	2113
11.504	2170
11.512	2227
11.52	2283
11.528	2337
11.536	2387
11.544	2428
11.552	2461
11.56	2487
11.568	2502
11.576	2507
11.584	2483
11.592	2444
11.6	2416
11.608	2390
11.616	2362
11.624	2331
11.632	2296
11.64	2257
11.648	2219
11.656	2182
11.664	2149
11.672	2122
11.68	2097
11.688	2073
11.696	2049
11.704	2027
11.712	2010
11.72	1995
11.728	1983
11.736	1972
11.744	1960
11.752	1948
11.76	1936
11.768	1928
11.776	1922
11.784	1917
11.792	1915
11.8	1912
11.808	1908
11.816	1904
11.824	1896
11.832	1886
11.84	1875
11.848	1862
11.856	1848
11.864	1836
11.872	1826
11.88	1817
11.888	1809
11.896	1801
11.904	1793
11.912	1785
11.92	1775
11.928	1764
11.936	1754
11.944	1743
11.952	1732
11.96	1721
11.968	1711
11.976	1700
11.984	1688
11.992	1678
12	1671
12.008	1666
12.016	1661
12.024	1659
12.032	1658
12.04	1655
12.048	1652
12.056	1650
12.064	1647
12.072	1644
12.08	1640
12.088	1636
12.096	1634
12.104	1633
12.112	1635
12.12	1638
12.128	1639
12.136	1642
12.144	1647
12.152	1652
12.16	1654
12.168	1655
12.176	1656
12.184	1654
12.192	1651
12.2	1648
12.208	1644
12.216	1642
12.224	1643
12.232	1646
12.24	1649
12.248	1653
12.256	1657
12.264	1663
12.272	1670
12.28	1679
12.288	1692
12.296	1709
12.304	1735
12.312	1768
12.32	1805
12.328	1847
12.336	1888
12.344	1925
12.352	1961
12.36	1993
12.368	2019
12.376	2038
12.384	2049
12.392	2055
12.4	2054
12.408	2045
12.416	2033
12.424	2017
12.432	1998
12.44	1975
12.448	1950
12.456	1923
12.464	1896
12.472	1871
12.48	1848
12.488	1824
12.496	1802
12.504	1783
12.512	1766
12.52	1751
12.528	1740
12.536	1730
12.544	1722
12.552	1715
12.56	1710
12.568	1705
12.576	1699
12.584	1694
12.592	1689
12.6	1685
12.608	1683
12.616	1682
12.624	1681
12.632	1681
12.64	1681
12.648	1681
12.656	1681
12.664	1681
12.672	1681
12.68	1681
12.688	1681
12.696	1681
12.704	1681
12.712	1679
12.72	1676
12.728	1674
12.736	1673
12.744	1674
12.752	1676
12.76	1679
12.768	1680
12.776	1678
12.784	1675
12.792	1672
12.8	1668
12.808	1664
12.816	1660
12.824	1658
12.832	1659
12.84	1662
12.848	1663
12.856	1664
12.864	1663
12.872	1660
12.88	1656
12.888	1653
12.896	1651
12.904	1652
12.912	1654
12.92	1655
12.928	1656
12.936	1656
12.944	1656
12.952	1656
12.96	1656
12.968	1656
12.976	1656
12.984	1656
12.992	1658
13	1661
13.008	1665
13.016	1671
13.024	1676
13.032	1680
13.04	1684
13.048	1690
13.056	1700
13.064	1714
13.072	1733
13.08	1759
13.088	1791.00000000001
13.096	1828
13.104	1868.00000000001
13.112	1908
13.12	1947.00000000001
13.128	1984
13.136	2016.00000000001
13.144	2044
13.152	2066
13.16	2080
13.168	2088
13.176	2091
13.184	2088
13.192	2078
13.2	2063
13.208	2044
13.216	2019.99999999999
13.224	1993
13.232	1964.99999999999
13.24	1937
13.248	1908.99999999999
13.256	1883
13.264	1863
13.272	1846
13.28	1831
13.288	1820
13.296	1810
13.304	1801
13.312	1793
13.32	1783
13.328	1772
13.336	1762
13.344	1753
13.352	1745
13.36	1739
13.368	1734
13.376	1729
13.384	1727
13.392	1726
13.4	1725
13.408	1723
13.416	1719
13.424	1716
13.432	1712
13.44	1706
13.448	1699
13.456	1694
13.464	1689
13.472	1685
13.48	1683
13.488	1682
13.496	1681
13.504	1681
13.512	1681
13.52	1679
13.528	1676
13.536	1674
13.544	1673
13.552	1675
13.56	1678
13.568	1679
13.576	1680
13.584	1680
13.592	1680
13.6	1688
13.608	1700
13.616	1706
13.624	1709
13.632	1711
13.64	1712
13.648	1712
13.656	1712
13.664	1712
13.672	1712
13.68	1712
13.688	1712
13.696	1712
13.704	1712
13.712	1712
13.72	1712
13.728	1712
13.736	1712
13.744	1712
13.752	1712
13.76	1712
13.768	1712
13.776	1712
13.784	1712
13.792	1712
13.8	1712
13.808	1712
13.816	1712
13.824	1712
13.832	1712
13.84	1712
13.848	1713
13.856	1717
13.864	1725
13.872	1741
13.88	1765
13.888	1794
13.896	1829
13.904	1872
13.912	1918
13.92	1964
13.928	2008
13.936	2049
13.944	2085
13.952	2115
13.96	2138
13.968	2153
13.976	2163
13.984	2164
13.992	2158
14	2147
14.008	2130
14.016	2110
14.024	2086.99999999999
14.032	2058
14.04	2025.99999999999
14.048	1995
14.056	1965.99999999999
14.064	1939
14.072	1917
14.08	1899
14.088	1882
14.096	1867
14.104	1854
14.112	1841
14.12	1831
14.128	1822
14.136	1814
14.144	1809
14.152	1807
14.16	1804
14.168	1800
14.176	1796
14.184	1792
14.192	1788
14.2	1784
14.208	1782
14.216	1779
14.224	1776
14.232	1774
14.24	1771
14.248	1766
14.256	1759
14.264	1752
14.272	1744
14.28	1736
14.288	1728
14.296	1721
14.304	1717
14.312	1713
14.32	1711
14.328	1712
14.336	1712
14.344	1712
14.352	1712
14.36	1712
14.368	1712
14.376	1712
14.384	1712
14.392	1712
14.4	1712
14.408	1712
14.416	1712
14.424	1712
14.432	1712
14.44	1712
14.448	1712
14.456	1712
14.464	1712
14.472	1712
14.48	1712
14.488	1712
14.496	1712
14.504	1712
14.512	1712
14.52	1712
14.528	1712
14.536	1712
14.544	1712
14.552	1712
14.56	1712
14.568	1712
14.576	1712
14.584	1712
14.592	1710
14.6	1707
14.608	1706
14.616	1707
14.624	1710
14.632	1711
14.64	1712
14.648	1712
14.656	1712
14.664	1713
14.672	1721
14.68	1737
14.688	1759
14.696	1789
14.704	1827
14.712	1871
14.72	1918
14.728	1962
14.736	2003
14.744	2041
14.752	2075
14.76	2104
14.768	2124
14.776	2138
14.784	2147
14.792	2150
14.8	2145
14.808	2133
14.816	2116
14.824	2096
14.832	2072
14.84	2044
14.848	2015
14.856	1988
14.864	1962
14.872	1937
14.88	1914
14.888	1893
14.896	1875
14.904	1860
14.912	1846
14.92	1835
14.928	1828
14.936	1822
14.944	1817
14.952	1813
14.96	1810
14.968	1807
14.976	1804
14.984	1800
14.992	1798
15	1795
15.008	1792
15.016	1790
15.024	1787
15.032	1782
15.04	1777
15.048	1773
15.056	1767
15.064	1762
15.072	1757
15.08	1753
15.088	1749
15.096	1745
15.104	1741
15.112	1737
15.12	1733
15.128	1729
15.136	1725
15.144	1721
15.152	1718
15.16	1715
15.168	1714
15.176	1713
15.184	1713
15.192	1713
15.2	1713
15.208	1713
15.216	1713
15.224	1713
15.232	1713
15.24	1713
15.248	1713
15.256	1713
15.264	1713
15.272	1713
15.28	1713
15.288	1713
15.296	1713
15.304	1713
15.312	1714
15.32	1715
15.328	1718
15.336	1721
15.344	1723
15.352	1724
15.36	1724
15.368	1722
15.376	1719
15.384	1718
15.392	1717
15.4	1717
15.408	1719
15.416	1722
15.424	1723
15.432	1724
15.44	1724
15.448	1726
15.456	1733
15.464	1747
15.472	1766
15.48	1790
15.488	1823
15.496	1867
15.504	1918
15.512	1972
15.52	2027
15.528	2084
15.536	2139
15.544	2190
15.552	2234
15.56	2271
15.568	2302
15.576	2325
15.584	2341
15.592	2347
15.6	2346
15.608	2339
15.616	2326
15.624	2308
15.632	2286
15.64	2259
15.648	2242
15.656	2228
15.664	2203
15.672	2173
15.68	2140
15.688	2107
15.696	2080
15.704	2057
15.712	2039
15.72	2026
15.728	2015
15.736	2005
15.744	1995
15.752	1986
15.76	1977
15.768	1968
15.776	1960
15.784	1956
15.792	1952
15.8	1948
15.808	1946
15.816	1945
15.824	1945
15.832	1945
15.84	1945
15.848	1945
15.856	1943
15.864	1940
15.872	1935
15.88	1928
15.888	1922
15.896	1917
15.904	1911
15.912	1903
15.92	1894
15.928	1887
15.936	1884
15.944	1882
15.952	1879
15.96	1876
15.968	1872
15.976	1868
15.984	1863
15.992	1856
16	1850
16.008	1845
16.016	1839
16.024	1831
16.032	1822
16.04	1811
16.048	1798.99999999999
16.056	1788
16.064	1778
16.072	1769
16.08	1763
16.088	1757
16.096	1749
16.104	1741
16.112	1733
16.12	1724
16.128	1714
16.136	1705
16.144	1697
16.152	1688
16.16	1680
16.168	1676
16.176	1674
16.184	1671
16.192	1668
16.2	1666
16.208	1665
16.216	1663
16.224	1660
16.232	1658
16.24	1659
16.248	1664
16.256	1668
16.264	1670
16.272	1674
16.28	1683
16.288	1697
16.296	1713
16.304	1734.00000000001
16.312	1762
16.32	1796
16.328	1838
16.336	1884.00000000002
16.344	1932
16.352	1981
16.36	2026
16.368	2066.00000000002
16.376	2102
16.384	2131
16.392	2150
16.4	2159
16.408	2162
16.416	2157
16.424	2144
16.432	2123
16.44	2097
16.448	2068
16.456	2035
16.464	2001
16.472	1970
16.48	1941
16.488	1914
16.496	1886
16.504	1861
16.512	1838
16.52	1814
16.528	1793
16.536	1777
16.544	1762
16.552	1747
16.56	1736
16.568	1725
16.576	1715
16.584	1706
16.592	1694
16.6	1683
16.608	1678
16.616	1675
16.624	1674
16.632	1673
16.64	1673
16.648	1673
16.656	1673
16.664	1673
16.672	1673
16.68	1673
16.688	1673
16.696	1673
16.704	1673
16.712	1673
16.72	1673
16.728	1673
16.736	1673
16.744	1673
16.752	1671
16.76	1668
16.768	1666
16.776	1665
16.784	1665
16.792	1665
16.8	1665
16.808	1665
16.816	1665
16.824	1665
16.832	1665
16.84	1665
16.848	1665
16.856	1665
16.864	1665
16.872	1665
16.88	1665
16.888	1665
16.896	1667
16.904	1670
16.912	1671
16.92	1672
16.928	1672
16.936	1672
16.944	1672
16.952	1672
16.96	1672
16.968	1672
16.976	1672
16.984	1675
16.992	1680
17	1679
17.008	1676
17.016	1672
17.024	1666
17.032	1659
17.04	1651
17.048	1642
17.056	1635
17.064	1634
17.072	1640
17.08	1652.00000000001
17.088	1669
17.096	1694
17.104	1726
17.112	1767.00000000002
17.12	1815
17.128	1866
17.136	1914
17.144	1954.00000000002
17.152	1983
17.16	2002
17.168	2016
17.176	2026
17.184	2033
17.192	2041
17.2	2052
17.208	2068.00000000001
17.216	2087
17.224	2109
17.232	2131
17.24	2146
17.248	2153
17.256	2153
17.264	2142
17.272	2114.99999999999
17.28	2075
17.288	2028
17.296	1977
17.304	1924.99999999998
17.312	1876
17.32	1835
17.328	1806
17.336	1789
17.344	1783
17.352	1785
17.36	1793
17.368	1803
17.376	1810
17.384	1813
17.392	1813
17.4	1809
17.408	1803
17.416	1793
17.424	1779
17.432	1765
17.44	1753
17.448	1743
17.456	1738
17.464	1737
17.472	1739
17.48	1745
17.488	1751
17.496	1754
17.504	1752
17.512	1746
17.52	1737
17.528	1724
17.536	1708
17.544	1693
17.552	1681
17.56	1673
17.568	1671
17.576	1672
17.584	1672
17.592	1672
17.6	1672
17.608	1672
17.616	1672
17.624	1670
17.632	1667
17.64	1666
17.648	1663
17.656	1660
17.664	1660
17.672	1662
17.68	1665
17.688	1669
17.696	1683
17.704	1702
17.712	1711
17.72	1716
17.728	1718
17.736	1719
17.744	1720
17.752	1720
17.76	1720
17.768	1720
17.776	1723
17.784	1728
17.792	1730
17.8	1731
17.808	1729
17.816	1725
17.824	1723
17.832	1722
17.84	1721
17.848	1721
17.856	1721
17.864	1721
17.872	1721
17.88	1721
17.888	1721
17.896	1724
17.904	1731
17.912	1747
17.92	1775
17.928	1812
17.936	1859
17.944	1920
17.952	1987
17.96	2052
17.968	2115
17.976	2179
17.984	2240
17.992	2293
18	2337
18.008	2373
18.016	2397.00000000001
18.024	2409
18.032	2412
18.04	2407
18.048	2396.99999999999
18.056	2378
18.064	2350
18.072	2319
18.08	2283.99999999998
18.088	2246
18.096	2207
18.104	2168
18.112	2130.99999999998
18.12	2098
18.128	2070
18.136	2048
18.144	2030.99999999999
18.152	2020
18.16	2011
18.168	2001
18.176	1989.99999999999
18.184	1978
18.192	1967
18.2	1960
18.208	1953
18.216	1947
18.224	1944
18.232	1942
18.24	1941
18.248	1938
18.256	1930
18.264	1923
18.272	1914
18.28	1903
18.288	1895
18.296	1886
18.304	1879
18.312	1873
18.32	1867
18.328	1861
18.336	1852
18.344	1841
18.352	1830
18.36	1815
18.368	1799.99999999999
18.376	1787
18.384	1775
18.392	1766
18.4	1758
18.408	1748
18.416	1737
18.424	1729
18.432	1725
18.44	1723
18.448	1722
18.456	1721
18.464	1721
18.472	1721
18.48	1721
18.488	1721
18.496	1721
18.504	1721
18.512	1721
18.52	1721
18.528	1721
18.536	1721
18.544	1721
18.552	1721
18.56	1721
18.568	1721
18.576	1721
18.584	1721
18.592	1721
18.6	1721
18.608	1721
18.616	1721
18.624	1721
18.632	1721
18.64	1721
18.648	1721
18.656	1721
18.664	1721
18.672	1721
18.68	1721
18.688	1721
18.696	1724
18.704	1731
18.712	1744
18.72	1764
18.728	1794
18.736	1838
18.744	1894
18.752	1959
18.76	2032
18.768	2105
18.776	2177
18.784	2248
18.792	2311
18.8	2363
18.808	2404
18.816	2433
18.824	2451
18.832	2457
18.84	2454
18.848	2443
18.856	2426
18.864	2403
18.872	2375
18.88	2341
18.888	2301
18.896	2258
18.904	2210
18.912	2160
18.92	2115
18.928	2076
18.936	2042
18.944	2013
18.952	1988
18.96	1967
18.968	1951
18.976	1937
18.984	1924
18.992	1911
19	1897
19.008	1885
19.016	1876
19.024	1868
19.032	1864
19.04	1862
19.048	1858
19.056	1853
19.064	1848
19.072	1836
19.08	1820.99999999999
19.088	1808
19.096	1796
19.104	1785
19.112	1777
19.12	1773
19.128	1768
19.136	1759
19.144	1752
19.152	1745
19.16	1736
19.168	1728
19.176	1724
19.184	1722
19.192	1721
19.2	1721
19.208	1721
19.216	1721
19.224	1721
19.232	1721
19.24	1721
19.248	1721
19.256	1721
19.264	1721
19.272	1721
19.28	1721
19.288	1721
19.296	1721
19.304	1721
19.312	1721
19.32	1721
19.328	1721
19.336	1721
19.344	1721
19.352	1721
19.36	1721
19.368	1721
19.376	1721
19.384	1721
19.392	1721
19.4	1721
19.408	1721
19.416	1721
19.424	1721
19.432	1721
19.44	1721
19.448	1721
19.456	1721
19.464	1724
19.472	1728
19.48	1733
19.488	1742
19.496	1752
19.504	1765
19.512	1786
19.52	1817
19.528	1859
19.536	1911
19.544	1974
19.552	2045
19.56	2124
19.568	2209
19.576	2298
19.584	2382
19.592	2458
19.6	2525
19.608	2579
19.616	2623
19.624	2657
19.632	2677
19.64	2684
19.648	2681
19.656	2669
19.664	2646
19.672	2613
19.68	2574
19.688	2532
19.696	2488
19.704	2443
19.712	2398
19.72	2355
19.728	2314
19.736	2272
19.744	2193
19.752	2101
19.76	2046
19.768	2009
19.776	1984
19.784	1966
19.792	1955
19.8	1950
19.808	1947
19.816	1946
19.824	1945
19.832	1945
19.84	1945
19.848	1945
19.856	1945
19.864	1945
19.872	1945
19.88	1945
19.888	1945
19.896	1945
19.904	1945
19.912	1945
19.92	1945
19.928	1945
19.936	1945
19.944	1945
19.952	1945
19.96	1945
19.968	1945
19.976	1945
19.984	1945
19.992	1945
20	1945
20.008	1945
20.016	1945
20.024	1945
20.032	1943
20.04	1940
20.048	1938
20.056	1937
20.064	1935
20.072	1932
20.08	1930
20.088	1929
20.096	1929
20.104	1929
20.112	1929
20.12	1926
20.128	1921
20.136	1919
20.144	1918
20.152	1917
20.16	1917
20.168	1915
20.176	1912
20.184	1910
20.192	1909
20.2	1907
20.208	1904
20.216	1902
20.224	1901
20.232	1901
20.24	1901
20.248	1898
20.256	1893
20.264	1891
20.272	1890
20.28	1889
20.288	1889
20.296	1892
20.304	1896
20.312	1902
20.32	1912
20.328	1924
20.336	1939.00000000001
20.344	1958
20.352	1980
20.36	2009
20.368	2049.00000000002
20.376	2096
20.384	2146
20.392	2196
20.4	2244.00000000002
20.408	2289
20.416	2325
20.424	2352
20.432	2372.00000000001
20.44	2384
20.448	2385
20.456	2377
20.464	2361.99999999999
20.472	2340
20.48	2311
20.488	2277
20.496	2242
20.504	2204
20.512	2165
20.52	2128
20.528	2091
20.536	2052
20.544	2011
20.552	1976
20.56	1947
20.568	1921
20.576	1899
20.584	1884
20.592	1871
20.6	1860
20.608	1850
20.616	1841
20.624	1832
20.632	1822
20.64	1813
20.648	1805
20.656	1799
20.664	1793
20.672	1787
20.68	1782
20.688	1775
20.696	1768
20.704	1759
20.712	1750
20.72	1741
20.728	1733
20.736	1722
20.744	1709
20.752	1699
20.76	1687
20.768	1676
20.776	1670
20.784	1667
20.792	1666
20.8	1665
20.808	1665
20.816	1665
20.824	1663
20.832	1660
20.84	1656
20.848	1652
20.856	1647
20.864	1642
20.872	1639
20.88	1638
20.888	1637
20.896	1637
20.904	1635
20.912	1632
20.92	1630
20.928	1629
20.936	1631
20.944	1634
20.952	1638
20.96	1643
20.968	1646
20.976	1649
20.984	1653
20.992	1655
21	1656
21.008	1656
21.016	1658
21.024	1661
21.032	1663
21.04	1664
21.048	1664
21.056	1664
21.064	1664
21.072	1664
21.08	1664
21.088	1664
21.096	1664
21.104	1664
21.112	1664
21.12	1664
21.128	1666
21.136	1672
21.144	1680
21.152	1690
21.16	1704
21.168	1725
21.176	1754.00000000001
21.184	1788
21.192	1830
21.2	1876
21.208	1919.00000000002
21.216	1959
21.224	1997
21.232	2030
21.24	2053.00000000001
21.248	2069
21.256	2079
21.264	2082
21.272	2076
21.28	2064
21.288	2049
21.296	2028
21.304	2001.99999999999
21.312	1976
21.32	1949
21.328	1922
21.336	1893.99999999999
21.344	1869
21.352	1848
21.36	1828
21.368	1808.99999999999
21.376	1793
21.384	1781
21.392	1771
21.4	1764
21.408	1757
21.416	1749
21.424	1741
21.432	1733
21.44	1727
21.448	1721
21.456	1715
21.464	1712
21.472	1710
21.48	1707
21.488	1704
21.496	1700
21.504	1694
21.512	1686
21.52	1677
21.528	1671
21.536	1668
21.544	1666
21.552	1665
21.56	1665
21.568	1665
21.576	1665
21.584	1665
21.592	1665
21.6	1663
21.608	1660
21.616	1658
21.624	1657
21.632	1659
21.64	1662
21.648	1663
21.656	1664
21.664	1664
21.672	1664
21.68	1662
21.688	1659
21.696	1658
21.704	1659
21.712	1662
21.72	1663
21.728	1664
21.736	1664
21.744	1664
21.752	1664
21.76	1664
21.768	1664
21.776	1664
21.784	1664
21.792	1673
21.8	1687
21.808	1694
21.816	1697
21.824	1699
21.832	1700
21.84	1700
21.848	1700
21.856	1700
21.864	1700
21.872	1700
21.88	1700
21.888	1700
21.896	1700
21.904	1700
21.912	1702
21.92	1705
21.928	1710
21.936	1715
21.944	1720
21.952	1726
21.96	1736
21.968	1752
21.976	1778
21.984	1814
21.992	1859
22	1909
22.008	1959
22.016	2011.00000000002
22.024	2061
22.032	2106
22.04	2144
22.048	2175.00000000001
22.056	2200
22.064	2216
22.072	2224
22.08	2226
22.088	2220
22.096	2206
22.104	2186
22.112	2161.99999999999
22.12	2134
22.128	2102
22.136	2068
22.144	2032.99999999998
22.152	2000
22.16	1972
22.168	1949
22.176	1928.99999999999
22.184	1910
22.192	1893
22.2	1881
22.208	1867.99999999999
22.216	1854
22.224	1845
22.232	1839
22.24	1831
22.248	1824
22.256	1818
22.264	1813
22.272	1811
22.28	1808
22.288	1804
22.296	1802
22.304	1801
22.312	1799
22.32	1793
22.328	1785
22.336	1777
22.344	1771
22.352	1766
22.36	1758
22.368	1751
22.376	1746
22.384	1739
22.392	1732
22.4	1723
22.408	1714
22.416	1707
22.424	1704
22.432	1702
22.44	1701
22.448	1701
22.456	1701
22.464	1701
22.472	1701
22.48	1701
22.488	1701
22.496	1701
22.504	1701
22.512	1701
22.52	1701
22.528	1701
22.536	1699
22.544	1696
22.552	1692
22.56	1688
22.568	1683
22.576	1681
22.584	1683
22.592	1684
22.6	1686
22.608	1689
22.616	1693
22.624	1697
22.632	1699
22.64	1700
22.648	1700
22.656	1700
22.664	1700
22.672	1700
22.68	1700
22.688	1700
22.696	1700
22.704	1700
22.712	1700
22.72	1700
22.728	1700
22.736	1700
22.744	1702
22.752	1710
22.76	1726
22.768	1750
22.776	1780
22.784	1815
22.792	1857
22.8	1905
22.808	1959
22.816	2018
22.824	2078
22.832	2137
22.84	2192
22.848	2237
22.856	2269
22.864	2287
22.872	2294
22.88	2288
22.888	2269
22.896	2242
22.904	2206
22.912	2163
22.92	2119
22.928	2075
22.936	2035
22.944	2006
22.952	1989
22.96	1983
22.968	1984
22.976	1986
22.984	1987
22.992	1986
23	1976
23.008	1955
23.016	1924.99999999999
23.024	1890
23.032	1854
23.04	1820
23.048	1793.99999999999
23.056	1781
23.064	1779
23.072	1791
23.08	1804.00000000001
23.088	1820
23.096	1843
23.104	1846
23.112	1844
23.12	1830
23.128	1812
23.136	1792
23.144	1770.99999999999
23.152	1752
23.16	1735
23.168	1722
23.176	1713
23.184	1707
23.192	1704
23.2	1702
23.208	1701
23.216	1701
23.224	1701
23.232	1700
23.24	1694
23.248	1686
23.256	1675
23.264	1664
23.272	1650.99999999999
23.28	1638
23.288	1627
23.296	1620
23.304	1618
23.312	1619
23.32	1622
23.328	1627
23.336	1635
23.344	1644
23.352	1650
23.36	1653
23.368	1655
23.376	1654
23.384	1648
23.392	1640
23.4	1634
23.408	1631
23.416	1632
23.424	1634
23.432	1638
23.44	1645
23.448	1653
23.456	1661
23.464	1673
23.472	1680
23.48	1685
23.488	1692
23.496	1696
23.504	1698
23.512	1699
23.52	1702
23.528	1708
23.536	1720
23.544	1739
23.552	1767
23.56	1806
23.568	1852
23.576	1902
23.584	1957
23.592	2017
23.6	2076
23.608	2132
23.616	2185
23.624	2230
23.632	2266
23.64	2293
23.648	2311
23.656	2320
23.664	2320
23.672	2311
23.68	2293
23.688	2270
23.696	2244
23.704	2215
23.712	2183
23.72	2149
23.728	2114
23.736	2078
23.744	2045
23.752	2018
23.76	1995
23.768	1977
23.776	1963
23.784	1954
23.792	1949
23.8	1947
23.808	1965
23.816	1993
23.824	2007
23.832	2014
23.84	2017
23.848	2019
23.856	2020
23.864	2020
23.872	2020
23.88	2020
23.888	2022
23.896	2025
23.904	2027
23.912	2026
23.92	2023
23.928	2017
23.936	2007
23.944	2000
23.952	1993
23.96	1987
23.968	1984
23.976	1982
23.984	1981
23.992	1979
24	1976
24.008	1974
24.016	1970
24.024	1965
24.032	1963
24.04	1962
24.048	1959
24.056	1956
24.064	1952
24.072	1945
24.08	1939
24.088	1934
24.096	1929
24.104	1927
24.112	1926
24.12	1925
24.128	1925
24.136	1922
24.144	1917
24.152	1913
24.16	1909
24.168	1907
24.176	1908
24.184	1910
24.192	1914
24.2	1921
24.208	1927
24.216	1933
24.224	1939
24.232	1942
24.24	1943
24.248	1946
24.256	1949
24.264	1951
24.272	1952
24.28	1952
24.288	1952
24.296	1952
24.304	1954
24.312	1957
24.32	1964
24.328	1977
24.336	1996.00000000001
24.344	2019
24.352	2048
24.36	2084
24.368	2126.00000000002
24.376	2176
24.384	2237
24.392	2301
24.4	2364.00000000003
24.408	2427
24.416	2488
24.424	2542
24.432	2588.00000000002
24.44	2623
24.448	2644
24.456	2651
24.464	2650
24.472	2642
24.48	2628
24.488	2607
24.496	2579.99999999999
24.504	2546
24.512	2508
24.52	2468
24.528	2423.99999999998
24.536	2380
24.544	2339
24.552	2302
24.56	2265.99999999998
24.568	2232
24.576	2203
24.584	2177
24.592	2152
24.6	2129
24.608	2108
24.616	2087
24.624	2070
24.632	2059
24.64	2052
24.648	2046
24.656	2040
24.664	2034
24.672	2029
24.68	2025
24.688	2020
24.696	2010
24.704	1998
24.712	1984
24.72	1968
24.728	1953
24.736	1941
24.744	1930
24.752	1919
24.76	1907
24.768	1894
24.776	1882
24.784	1871
24.792	1862
24.8	1852
24.808	1842
24.816	1832
24.824	1820
24.832	1807
24.84	1796
24.848	1785
24.856	1775
24.864	1766
24.872	1759
24.88	1756
24.888	1754
24.896	1753
24.904	1753
24.912	1753
24.92	1750
24.928	1745
24.936	1741
24.944	1737
24.952	1735
24.96	1732
24.968	1728
24.976	1726
24.984	1722
24.992	1717
25	1715
25.008	1714
25.016	1716
25.024	1720
25.032	1722
25.04	1720
25.048	1716
25.056	1712
25.064	1705
25.072	1699
25.08	1696
25.088	1694
25.096	1693
25.104	1696
25.112	1700
25.12	1704
25.128	1708
25.136	1713
25.144	1721
25.152	1732
25.16	1744
25.168	1757
25.176	1778.00000000001
25.184	1807
25.192	1844
25.2	1886
25.208	1933.00000000002
25.216	1983
25.224	2030
25.232	2075
25.24	2117.00000000002
25.248	2152
25.256	2179
25.264	2196
25.272	2204
25.28	2205
25.288	2199
25.296	2187
25.304	2170.99999999999
25.312	2151
25.32	2124
25.328	2093
25.336	2063.99999999999
25.344	2032
25.352	1999
25.36	1969
25.368	1939.99999999999
25.376	1913
25.384	1890
25.392	1871
25.4	1856.99999999999
25.408	1842
25.416	1827
25.424	1816
25.432	1805
25.44	1797
25.448	1791
25.456	1783
25.464	1776
25.472	1770
25.48	1765
25.488	1763
25.496	1762
25.504	1761
25.512	1761
25.52	1761
25.528	1761
25.536	1759
25.544	1756
25.552	1754
25.56	1753
25.568	1753
25.576	1755
25.584	1758
25.592	1759
25.6	1760
25.608	1760
25.616	1760
25.624	1760
25.632	1760
25.64	1760
25.648	1760
25.656	1758
25.664	1757
25.672	1759
25.68	1760
25.688	1760
25.696	1760
25.704	1760
25.712	1758
25.72	1755
25.728	1754
25.736	1753
25.744	1755
25.752	1758
25.76	1759
25.768	1760
25.776	1760
25.784	1760
25.792	1760
25.8	1760
25.808	1760
25.816	1760
25.824	1760
25.832	1760
25.84	1760
25.848	1760
25.856	1749
25.864	1733
25.872	1725
25.88	1721
25.888	1719
25.896	1718
25.904	1717
25.912	1717
25.92	1717
25.928	1717
25.936	1717
25.944	1717
25.952	1719
25.96	1724
25.968	1732
25.976	1744
25.984	1761
25.992	1787
26	1819
26.008	1856
26.016	1895.00000000002
26.024	1934
26.032	1970
26.04	2005
26.048	2038.00000000001
26.056	2065
26.064	2091
26.072	2112
26.08	2126
26.088	2133
26.096	2133
26.104	2127
26.112	2115.99999999999
26.12	2101
26.128	2083
26.136	2060
26.144	2032.99999999999
26.152	2003
26.16	1972
26.168	1947
26.176	1925.99999999999
26.184	1907
26.192	1892
26.2	1878
26.208	1867
26.216	1857
26.224	1847
26.232	1838
26.24	1829
26.248	1821
26.256	1815
26.264	1812
26.272	1810
26.28	1809
26.288	1809
26.296	1809
26.304	1809
26.312	1809
26.32	1807
26.328	1804
26.336	1800
26.344	1794
26.352	1787
26.36	1781
26.368	1775
26.376	1770
26.384	1765
26.392	1759
26.4	1754
26.408	1749
26.416	1743
26.424	1736
26.432	1728
26.44	1722
26.448	1719
26.456	1718
26.464	1717
26.472	1717
26.48	1717
26.488	1717
26.496	1717
26.504	1717
26.512	1717
26.52	1716
26.528	1714
26.536	1713
26.544	1713
26.552	1714
26.56	1715
26.568	1716
26.576	1716
26.584	1716
26.592	1716
26.6	1716
26.608	1716
26.616	1716
26.624	1716
26.632	1716
26.64	1716
26.648	1716
26.656	1716
26.664	1716
26.672	1716
26.68	1716
26.688	1716
26.696	1716
26.704	1716
26.712	1716
26.72	1716
26.728	1716
26.736	1716
26.744	1716
26.752	1716
26.76	1718
26.768	1723
26.776	1734
26.784	1750
26.792	1771
26.8	1801
26.808	1839
26.816	1883
26.824	1928
26.832	1971
26.84	2015
26.848	2058
26.856	2099
26.864	2135
26.872	2160
26.88	2174
26.888	2181
26.896	2183
26.904	2180
26.912	2173
26.92	2163
26.928	2148
26.936	2128
26.944	2105
26.952	2079
26.96	2049
26.968	2015
26.976	1982
26.984	1954
26.992	1929
27	1907
27.008	1890
27.016	1874.99999999999
27.024	1863
27.032	1854
27.04	1845
27.048	1837
27.056	1831
27.064	1826
27.072	1821
27.08	1819
27.088	1818
27.096	1817
27.104	1817
27.112	1815
27.12	1812
27.128	1808
27.136	1804
27.144	1800
27.152	1796
27.16	1792
27.168	1786
27.176	1781
27.184	1778
27.192	1773
27.2	1769
27.208	1765
27.216	1761
27.224	1757
27.232	1751
27.24	1744
27.248	1736
27.256	1728
27.264	1721
27.272	1717
27.28	1715
27.288	1714
27.296	1714
27.304	1715
27.312	1716
27.32	1716
27.328	1716
27.336	1716
27.344	1716
27.352	1716
27.36	1716
27.368	1716
27.376	1716
27.384	1716
27.392	1716
27.4	1716
27.408	1716
27.416	1715
27.424	1714
27.432	1713
27.44	1713
27.448	1714
27.456	1715
27.464	1716
27.472	1716
27.48	1716
27.488	1716
27.496	1715
27.504	1714
27.512	1711
27.52	1708
27.528	1706
27.536	1705
27.544	1707
27.552	1711
27.56	1714
27.568	1717
27.576	1723
27.584	1734
27.592	1750.00000000001
27.6	1773
27.608	1806
27.616	1845
27.624	1888.00000000002
27.632	1932
27.64	1977
27.648	2022
27.656	2063
27.664	2100
27.672	2133
27.68	2159
27.688	2176
27.696	2186
27.704	2189
27.712	2189
27.72	2185
27.728	2176
27.736	2162
27.744	2141
27.752	2116
27.76	2086
27.768	2053
27.776	2020
27.784	1988
27.792	1961
27.8	1939
27.808	1920
27.816	1904
27.824	1892
27.832	1882
27.84	1873
27.848	1864
27.856	1854
27.864	1845
27.872	1837
27.88	1831
27.888	1828
27.896	1828
27.904	1838
27.912	1851
27.92	1858
27.928	1858
27.936	1855
27.944	1851
27.952	1843
27.96	1833
27.968	1825
27.976	1818
27.984	1808
27.992	1800
28	1796
28.008	1797
28.016	1801
28.024	1803
28.032	1804
28.04	1801
28.048	1794
28.056	1781
28.064	1767
28.072	1755
28.08	1746
28.088	1741
28.096	1739
28.104	1741
28.112	1745
28.12	1749
28.128	1753
28.136	1753
28.144	1748
28.152	1739
28.16	1726
28.168	1710
28.176	1699
28.184	1694
28.192	1694
28.2	1697
28.208	1702
28.216	1710
28.224	1720
28.232	1728
28.24	1732
28.248	1734
28.256	1732
28.264	1728
28.272	1723
28.28	1718
28.288	1712
28.296	1706
28.304	1703
28.312	1705
28.32	1709
28.328	1714
28.336	1719
28.344	1725
28.352	1734
28.36	1741
28.368	1750
28.376	1762
28.384	1780
28.392	1810
28.4	1852.00000000002
28.408	1909
28.416	1979
28.424	2055
28.432	2137.00000000004
28.44	2225
28.448	2314
28.456	2397
28.464	2471.00000000003
28.472	2534
28.48	2589
28.488	2638
28.496	2677.00000000001
28.504	2706
28.512	2726
28.52	2736
28.528	2732
28.536	2715
28.544	2686
28.552	2647
28.56	2603.99999999998
28.568	2556
28.576	2506
28.584	2457
28.592	2411.99999999998
28.6	2371
28.608	2333
28.616	2300
28.624	2271.99999999999
28.632	2246
28.64	2224
28.648	2204
28.656	2184.99999999999
28.664	2167
28.672	2146
28.68	2126
28.688	2107
28.696	2089
28.704	2074
28.712	2063
28.72	2058
28.728	2055
28.736	2054
28.744	2050
28.752	2042
28.76	2032
28.768	2022
28.776	2012
28.784	2001
28.792	1990
28.8	1978
28.808	1969
28.816	1965
28.824	1960
28.832	1951
28.84	1941
28.848	1930
28.856	1918
28.864	1906
28.872	1894
28.88	1882
28.888	1870
28.896	1858
28.904	1846
28.912	1834
28.92	1825
28.928	1815
28.936	1801
28.944	1788
28.952	1775
28.96	1761
28.968	1746
28.976	1732
28.984	1716
28.992	1702
29	1695
29.008	1692
29.016	1690
29.024	1689
29.032	1689
29.04	1689
29.048	1689
29.056	1689
29.064	1689
29.072	1689
29.08	1689
29.088	1689
29.096	1689
29.104	1689
29.112	1686
29.12	1678
29.128	1671
29.136	1668
29.144	1666
29.152	1665
29.16	1668
29.168	1675
29.176	1682
29.184	1685
29.192	1687
29.2	1691
29.208	1702.00000000001
29.216	1719
29.224	1745
29.232	1784
29.24	1836.00000000003
29.248	1898
29.256	1964
29.264	2029
29.272	2089.00000000003
29.28	2143
29.288	2191
29.296	2229
29.304	2259.00000000001
29.312	2280
29.32	2290
29.328	2289
29.336	2277.99999999999
29.344	2258
29.352	2230
29.36	2195
29.368	2150.99999999998
29.376	2105
29.384	2065
29.392	2025
29.4	1983.99999999998
29.408	1945
29.416	1905
29.424	1867
29.432	1832.99999999999
29.44	1801
29.448	1777
29.456	1760
29.464	1744.99999999999
29.472	1732
29.48	1722
29.488	1714
29.496	1707
29.504	1701
29.512	1695
29.52	1692
29.528	1690
29.536	1689
29.544	1689
29.552	1689
29.56	1689
29.568	1689
29.576	1689
29.584	1689
29.592	1689
29.6	1689
29.608	1689
29.616	1689
29.624	1689
29.632	1689
29.64	1689
29.648	1689
29.656	1689
29.664	1689
29.672	1686
29.68	1681
29.688	1676
29.696	1670
29.704	1664
29.712	1658
29.72	1655
29.728	1654
29.736	1653
29.744	1650
29.752	1645
29.76	1640
29.768	1631
29.776	1621
29.784	1613
29.792	1609
29.8	1607
29.808	1606
29.816	1605
29.824	1608
29.832	1612
29.84	1614
29.848	1615
29.856	1616
29.864	1616
29.872	1616
29.88	1616
29.888	1619
29.896	1624
29.904	1626
29.912	1627
29.92	1628
29.928	1628
29.936	1628
29.944	1631
29.952	1648
29.96	1672
29.968	1690
29.976	1703
29.984	1712
29.992	1716
30	1720
30.008	1724
30.016	1728
30.024	1738
30.032	1755
30.04	1779
30.048	1810.00000000002
30.056	1847
30.064	1890
30.072	1933
30.08	1973.00000000002
30.088	2011
30.096	2046
30.104	2075
30.112	2100.00000000001
30.12	2118
30.128	2129
30.136	2133
30.144	2131
30.152	2124
30.16	2110
30.168	2089
30.176	2064.99999999999
30.184	2037
30.192	2007
30.2	1980
30.208	1953.99999999999
30.216	1929
30.224	1905
30.232	1881
30.24	1858.99999999999
30.248	1842
30.256	1830
30.264	1821
30.272	1813
30.28	1807
30.288	1804
30.296	1800
30.304	1796
30.312	1792
30.32	1788
30.328	1784
30.336	1780
30.344	1776
30.352	1772
30.36	1770
30.368	1767
30.376	1764
30.384	1760
30.392	1754
30.4	1747
30.408	1740
30.416	1732
30.424	1726
30.432	1723
30.44	1722
30.448	1721
30.456	1721
30.464	1721
30.472	1721
30.48	1721
30.488	1721
30.496	1721
30.504	1721
30.512	1721
30.52	1721
30.528	1721
30.536	1721
30.544	1721
30.552	1721
30.56	1721
30.568	1719
30.576	1716
30.584	1714
30.592	1713
30.6	1713
30.608	1713
30.616	1715
30.624	1718
30.632	1719
30.64	1720
30.648	1720
30.656	1720
30.664	1720
30.672	1720
30.68	1720
30.688	1720
30.696	1720
30.704	1720
30.712	1720
30.72	1720
30.728	1720
30.736	1720
30.744	1720
30.752	1720
30.76	1720
30.768	1720
30.776	1720
30.784	1720
30.792	1720
30.8	1720
30.808	1720
30.816	1724
30.824	1732
30.832	1744
30.84	1764
30.848	1789
30.856	1821
30.864	1863
30.872	1910
30.88	1957
30.888	2003
30.896	2046
30.904	2085
30.912	2119
30.92	2146
30.928	2165
30.936	2177
30.944	2181
30.952	2179
30.96	2172
30.968	2158
30.976	2139
30.984	2118
30.992	2093
31	2065
31.008	2035
31.016	2005.99999999999
31.024	1979
31.032	1954
31.04	1931
31.048	1911.99999999999
31.056	1896
31.064	1884
31.072	1874
31.08	1867
31.088	1862
31.096	1857
31.104	1853
31.112	1847
31.12	1840
31.128	1834
31.136	1829
31.144	1825
31.152	1823
31.16	1822
31.168	1820
31.176	1816
31.184	1810
31.192	1803
31.2	1796
31.208	1790
31.216	1785
31.224	1779
31.232	1772
31.24	1764
31.248	1756
31.256	1748
31.264	1740
31.272	1732
31.28	1726
31.288	1723
31.296	1722
31.304	1721
31.312	1721
31.32	1721
31.328	1719
31.336	1716
31.344	1714
31.352	1715
31.36	1718
31.368	1719
31.376	1720
31.384	1720
31.392	1720
31.4	1720
31.408	1720
31.416	1720
31.424	1720
31.432	1720
31.44	1720
31.448	1720
31.456	1720
31.464	1720
31.472	1720
31.48	1720
31.488	1720
31.496	1720
31.504	1720
31.512	1720
31.52	1720
31.528	1720
31.536	1720
31.544	1720
31.552	1720
31.56	1720
31.568	1720
31.576	1720
31.584	1720
31.592	1720
31.6	1720
31.608	1720
31.616	1722
31.624	1727
31.632	1734
31.64	1747
31.648	1770
31.656	1800.00000000001
31.664	1838
31.672	1885
31.68	1939
31.688	1992.00000000002
31.696	2042
31.704	2089
31.712	2131
31.72	2165.00000000001
31.728	2187
31.736	2198
31.744	2203
31.752	2206
31.76	2204
31.768	2196
31.776	2182
31.784	2163
31.792	2140
31.8	2112
31.808	2082
31.816	2049
31.824	2015
31.832	1984
31.84	1956
31.848	1930
31.856	1905
31.864	1883
31.872	1864
31.88	1846
31.888	1832
31.896	1822
31.904	1813
31.912	1807
31.92	1802
31.928	1795
31.936	1788
31.944	1782
31.952	1777
31.96	1773
31.968	1769
31.976	1765
31.984	1761
31.992	1757
32	1753
32.008	1746
32.016	1736
32.024	1726
32.032	1719
32.04	1716
32.048	1714
32.056	1713
32.064	1713
32.072	1713
32.08	1713
32.088	1713
32.096	1713
32.104	1713
32.112	1713
32.12	1713
32.128	1713
32.136	1713
32.144	1713
32.152	1713
32.16	1713
32.168	1713
32.176	1713
32.184	1713
32.192	1713
32.2	1713
32.208	1713
32.216	1713
32.224	1713
32.232	1713
32.24	1713
32.248	1713
32.256	1713
32.264	1713
32.272	1713
32.28	1713
32.288	1713
32.296	1713
32.304	1713
32.312	1713
32.32	1713
32.328	1713
32.336	1713
32.344	1713
32.352	1713
32.36	1715
32.368	1721
32.376	1730
32.384	1740
32.392	1751
32.4	1763
32.408	1775
32.416	1790.00000000001
32.424	1806
32.432	1825
32.44	1852
32.448	1889
32.456	1943
32.464	2010
32.472	2087
32.48	2173.00000000008
32.488	2262
32.496	2349
32.504	2434
32.512	2511
32.52	2573
32.528	2619
32.536	2654
32.544	2677.00000000001
32.552	2686
32.56	2681
32.568	2667
32.576	2648
32.584	2624
32.592	2592
32.6	2552
32.608	2508.99999999996
32.616	2465
32.624	2419
32.632	2373
32.64	2327
32.648	2281
32.656	2235
32.664	2188
32.672	2145.99999999997
32.68	2114
32.688	2093
32.696	2083
32.704	2078
32.712	2075
32.72	2074
32.728	2073
32.736	2073
32.744	2073
32.752	2070
32.76	2065
32.768	2063
32.776	2062
32.784	2064
32.792	2068
32.8	2070
32.808	2071
32.816	2072
32.824	2072
32.832	2072
32.84	2072
32.848	2069
32.856	2065
32.864	2063
32.872	2062
32.88	2061
32.888	2061
32.896	2061
32.904	2061
32.912	2061
32.92	2058
32.928	2050
32.936	2043
32.944	2037
32.952	2028
32.96	2020
32.968	2013
32.976	2007
32.984	2004
32.992	2002
33	1998
33.008	1993
33.016	1991
33.024	1987
33.032	1978.99999999999
33.04	1970
33.048	1963
33.056	1957
33.064	1951
33.072	1948
33.08	1946
33.088	1942
33.096	1937
33.104	1935
33.112	1931
33.12	1926
33.128	1920
33.136	1914
33.144	1908
33.152	1902
33.16	1895.99999999999
33.168	1890
33.176	1887
33.184	1883
33.192	1878
33.2	1875
33.208	1874
33.216	1873
33.224	1873
33.232	1876
33.24	1883
33.248	1896
33.256	1917
33.264	1945
33.272	1982
33.28	2029
33.288	2082.00000000005
33.296	2140
33.304	2201
33.312	2264
33.32	2327
33.328	2383
33.336	2428
33.344	2461
33.352	2481.00000000001
33.36	2491
33.368	2490
33.376	2475
33.384	2451
33.392	2421
33.4	2389
33.408	2353
33.416	2310.99999999996
33.424	2264
33.432	2214
33.44	2165
33.448	2118
33.456	2074
33.464	2034
33.472	1984
33.48	1953.99999999997
33.488	1925
33.496	1886
33.504	1864
33.512	1848
33.52	1835
33.528	1823
33.536	1811
33.544	1801.99999999999
33.552	1794
33.56	1784
33.568	1773
33.576	1762
33.584	1750
33.592	1741
33.6	1734
33.608	1724.99999999999
33.616	1719
33.624	1713
33.632	1707
33.64	1701
33.648	1692
33.656	1684
33.664	1677
33.672	1671
33.68	1668
33.688	1666
33.696	1662
33.704	1657
33.712	1652
33.72	1643
33.728	1637
33.736	1632
33.744	1630
33.752	1629
33.76	1629
33.768	1629
33.776	1629
33.784	1629
33.792	1629
33.8	1629
33.808	1629
33.816	1629
33.824	1632
33.832	1636
33.84	1638
33.848	1639
33.856	1640
33.864	1643
33.872	1648
33.88	1650
33.888	1654
33.896	1659
33.904	1662
33.912	1663
33.92	1664
33.928	1667
33.936	1673
33.944	1674
33.952	1675
33.96	1676
33.968	1676
33.976	1677
33.984	1684
33.992	1689
34	1698
34.008	1705
34.016	1712
34.024	1718
34.032	1723.00000000001
34.04	1734
34.048	1749
34.056	1769
34.064	1798
34.072	1835
34.08	1877
34.088	1919
34.096	1961.00000000004
34.104	2001
34.112	2035
34.12	2062
34.128	2081
34.136	2096
34.144	2106
34.152	2106
34.16	2098.99999999999
34.168	2088
34.176	2070
34.184	2049
34.192	2026
34.2	2001
34.208	1979
34.216	1958
34.224	1935.99999999998
34.232	1916
34.24	1898
34.248	1881
34.256	1867
34.264	1854
34.272	1841
34.28	1833
34.288	1825.99999999999
34.296	1819
34.304	1814
34.312	1809
34.32	1805
34.328	1799
34.336	1794
34.344	1789
34.352	1785
34.36	1781
34.368	1777
34.376	1775
34.384	1772
34.392	1766
34.4	1759
34.408	1752
34.416	1741.99999999999
34.424	1733
34.432	1729
34.44	1727
34.448	1726
34.456	1725
34.464	1725
34.472	1725
34.48	1725
34.488	1723
34.496	1720
34.504	1718
34.512	1717
34.52	1715
34.528	1712
34.536	1712
34.544	1714
34.552	1715
34.56	1718
34.568	1721
34.576	1723
34.584	1724
34.592	1724
34.6	1724
34.608	1724
34.616	1724
34.624	1724
34.632	1724
34.64	1724
34.648	1724
34.656	1724
34.664	1724
34.672	1724
34.68	1724
34.688	1724
34.696	1724
34.704	1724
34.712	1724
34.72	1724
34.728	1724
34.736	1724
34.744	1724
34.752	1724
34.76	1724
34.768	1724
34.776	1724
34.784	1724
34.792	1724
34.8	1724
34.808	1724
34.816	1724
34.824	1726
34.832	1731
34.84	1740
34.848	1754
34.856	1775
34.864	1805
34.872	1843
34.88	1887
34.888	1934
34.896	1982
34.904	2029
34.912	2072
34.92	2108
34.928	2138
34.936	2163
34.944	2180
34.952	2191
34.96	2197
34.968	2195
34.976	2188
34.984	2176
34.992	2160
35	2137
35.008	2109
35.016	2079
35.024	2047
35.032	2015.99999999997
35.04	1988
35.048	1964
35.056	1941
35.064	1919
35.072	1902
35.08	1887
35.088	1874
35.096	1862.99999999999
35.104	1856
35.112	1850
35.12	1847
35.128	1848
35.136	1848
35.144	1848
35.152	1846
35.16	1843
35.168	1840
35.176	1836
35.184	1832
35.192	1828
35.2	1826
35.208	1825
35.216	1825
35.224	1822
35.232	1817
35.24	1813
35.248	1807
35.256	1800
35.264	1792
35.272	1784
35.28	1776
35.288	1770
35.296	1765
35.304	1759
35.312	1752
35.32	1744
35.328	1736
35.336	1730
35.344	1727
35.352	1726
35.36	1725
35.368	1725
35.376	1725
35.384	1725
35.392	1725
35.4	1725
35.408	1725
35.416	1725
35.424	1725
35.432	1723
35.44	1720
35.448	1718
35.456	1717
35.464	1717
35.472	1717
35.48	1717
35.488	1717
35.496	1719
35.504	1722
35.512	1723
35.52	1724
35.528	1724
35.536	1724
35.544	1724
35.552	1724
35.56	1724
35.568	1722
35.576	1719
35.584	1720
35.592	1722
35.6	1723
35.608	1724
35.616	1726
35.624	1731
35.632	1738
35.64	1745
35.648	1757
35.656	1775
35.664	1799
35.672	1832.00000000003
35.68	1873
35.688	1921
35.696	1972
35.704	2024
35.712	2077
35.72	2127
35.728	2171
35.736	2208.00000000003
35.744	2234
35.752	2247
35.76	2250
35.768	2247
35.776	2240
35.784	2228
35.792	2211
35.8	2189.99999999998
35.808	2165
35.816	2136
35.824	2104
35.832	2070
35.84	2034
35.848	2001
35.856	1975
35.864	1951
35.872	1930
35.88	1913
35.888	1899
35.896	1888
35.904	1878
35.912	1869
35.92	1863
35.928	1858
35.936	1853
35.944	1851
35.952	1848
35.96	1844
35.968	1842
35.976	1839
35.984	1836
35.992	1832
36	1828
36.008	1823
36.016	1816
36.024	1810
36.032	1804.99999999999
36.04	1797
36.048	1787
36.056	1776
36.064	1757
36.072	1736
36.08	1719
36.088	1706
36.096	1696.99999999999
36.104	1693
36.112	1691
36.12	1690
36.128	1689
36.136	1686
36.144	1681
36.152	1679
36.16	1678
36.168	1677
36.176	1677
36.184	1677
36.192	1674
36.2	1669
36.208	1667
36.216	1663
36.224	1658
36.232	1655
36.24	1654
36.248	1653
36.256	1653
36.264	1653
36.272	1650
36.28	1645
36.288	1643
36.296	1642
36.304	1644
36.312	1648
36.32	1653
36.328	1659
36.336	1665
36.344	1671
36.352	1674
36.36	1675
36.368	1676
36.376	1676
36.384	1676
36.392	1679
36.4	1684
36.408	1686
36.416	1687
36.424	1688
36.432	1688
36.44	1693
36.448	1707
36.456	1731
36.464	1769
36.472	1820
36.48	1882.00000000006
36.488	1950
36.496	2021
36.504	2094
36.512	2168
36.52	2243
36.528	2312
36.536	2371
36.544	2421.00000000004
36.552	2461
36.56	2490
36.568	2507
36.576	2513
36.584	2507
36.592	2489
36.6	2460
36.608	2427.99999999997
36.616	2398
36.624	2363
36.632	2323
36.64	2280
36.648	2235
36.656	2193
36.664	2152
36.672	2110.99999999997
36.68	2079
36.688	2057
36.696	2041
36.704	2031
36.712	2026
36.72	2020
36.728	2014
36.736	2011
36.744	2010
36.752	2009
36.76	2009
36.768	2009
36.776	2009
36.784	2009
36.792	2009
36.8	2009
36.808	2009
36.816	2006
36.824	2001
36.832	1999
36.84	1995
36.848	1990
36.856	1984
36.864	1974.99999999999
36.872	1965
36.88	1955
36.888	1948
36.896	1941
36.904	1935
36.912	1932
36.92	1930
36.928	1929
36.936	1926
36.944	1921
36.952	1919
36.96	1915
36.968	1910
36.976	1907
36.984	1903
36.992	1898
37	1895
37.008	1891
37.016	1886
37.024	1883
37.032	1882
37.04	1881
37.048	1881
37.056	1884
37.064	1888
37.072	1893
37.08	1899
37.088	1905
37.096	1911.00000000001
37.104	1917
37.112	1923
37.12	1926
37.128	1927
37.136	1931
37.144	1936
37.152	1938
37.16	1941
37.168	1945
37.176	1945
37.184	1943
37.192	1942
37.2	1941
37.208	1941
37.216	1941
37.224	1941
37.232	1943
37.24	1949
37.248	1958
37.256	1974
37.264	1999
37.272	2035
37.28	2082
37.288	2136.00000000005
37.296	2200
37.304	2269
37.312	2339
37.32	2409
37.328	2475
37.336	2536
37.344	2589
37.352	2634.00000000004
37.36	2670
37.368	2693
37.376	2705
37.384	2709
37.392	2700
37.4	2677
37.408	2649
37.416	2614.99999999997
37.424	2572
37.432	2522
37.44	2468
37.448	2412
37.456	2359
37.464	2307
37.472	2255
37.48	2208.99999999996
37.488	2169
37.496	2132
37.504	2098
37.512	2069
37.52	2047
37.528	2031
37.536	2017
37.544	2003.99999999999
37.552	1991
37.56	1979
37.568	1967
37.576	1958
37.584	1951
37.592	1946
37.6	1940
37.608	1930.99999999999
37.616	1921
37.624	1907
37.632	1891
37.64	1877
37.648	1865
37.656	1854
37.664	1842
37.672	1826.99999999999
37.68	1811
37.688	1795
37.696	1779
37.704	1762
37.712	1744
37.72	1729
37.728	1714
37.736	1700.99999999999
37.744	1695
37.752	1692
37.76	1690
37.768	1689
37.776	1689
37.784	1689
37.792	1686
37.8	1681
37.808	1676
37.816	1670
37.824	1664
37.832	1658
37.84	1655
37.848	1651
37.856	1646
37.864	1639.99999999999
37.872	1632
37.88	1626
37.888	1623
37.896	1619
37.904	1614
37.912	1611
37.92	1610
37.928	1609
37.936	1609
37.944	1609
37.952	1609
37.96	1606
37.968	1601
37.976	1596
37.984	1590
37.992	1587
38	1586
38.008	1585
38.016	1585
38.024	1588
38.032	1595.00000000001
38.04	1605
38.048	1618
38.056	1632
38.064	1648
38.072	1665
38.08	1679
38.088	1694
38.096	1719.00000000003
38.104	1752
38.112	1788
38.12	1828
38.128	1870
38.136	1912
38.144	1952
38.152	1988
38.16	2018.00000000002
38.168	2043
38.176	2060
38.184	2068
38.192	2068
38.2	2060
38.208	2048
38.216	2032
38.224	2011.99999999998
38.232	1992
38.24	1973
38.248	1953
38.256	1931
38.264	1906
38.272	1879
38.28	1855
38.288	1831.99999999998
38.296	1810
38.304	1791
38.312	1774
38.32	1757
38.328	1745
38.336	1738
38.344	1733
38.352	1731
38.36	1731
38.368	1732
38.376	1732
38.384	1732
38.392	1732
38.4	1732
38.408	1732
38.416	1732
38.424	1732
38.432	1732
38.44	1731
38.448	1730
38.456	1729
38.464	1730
38.472	1731
38.48	1732
38.488	1732
38.496	1732
38.504	1732
38.512	1731
38.52	1730
38.528	1729
38.536	1729
38.544	1729
38.552	1729
38.56	1729
38.568	1727
38.576	1724
38.584	1722
38.592	1721
38.6	1721
38.608	1721
38.616	1721
38.624	1719
38.632	1716
38.64	1714
38.648	1711
38.656	1708
38.664	1706
38.672	1705
38.68	1705
38.688	1705
38.696	1705
38.704	1703
38.712	1700
38.72	1698
38.728	1697
38.736	1699
38.744	1702
38.752	1705
38.76	1709
38.768	1711
38.776	1712
38.784	1712
38.792	1710
38.8	1707
38.808	1706
38.816	1705
38.824	1705
38.832	1707
38.84	1712
38.848	1718
38.856	1724
38.864	1728
38.872	1730
38.88	1733
38.888	1741
38.896	1755
38.904	1776
38.912	1803
38.92	1836
38.928	1872
38.936	1911
38.944	1952
38.952	1992
38.96	2028
38.968	2059
38.976	2086
38.984	2105
38.992	2117
39	2123
39.008	2124
39.016	2120
39.024	2112
39.032	2098.99999999999
39.04	2082
39.048	2059
39.056	2032
39.064	2004
39.072	1979
39.08	1956
39.088	1932
39.096	1909.99999999998
39.104	1891
39.112	1874
39.12	1857
39.128	1844
39.136	1834
39.144	1825
39.152	1815
39.16	1803.99999999999
39.168	1794
39.176	1787
39.184	1782
39.192	1775
39.2	1770
39.208	1767
39.216	1764
39.224	1757.99999999999
39.232	1751
39.24	1744
39.248	1738
39.256	1735
39.264	1734
39.272	1733
39.28	1733
39.288	1733
39.296	1733
39.304	1732
39.312	1730
39.32	1729
39.328	1729
39.336	1729
39.344	1729
39.352	1729
39.36	1729
39.368	1729
39.376	1729
39.384	1729
39.392	1727
39.4	1724
39.408	1722
39.416	1719
39.424	1714
39.432	1709
39.44	1707
39.448	1706
39.456	1705
39.464	1705
39.472	1705
39.48	1705
39.488	1705
39.496	1703
39.504	1700
39.512	1698
39.52	1697
39.528	1697
39.536	1699
39.544	1702
39.552	1703
39.56	1706
39.568	1709
39.576	1713
39.584	1717
39.592	1719
39.6	1720
39.608	1720
39.616	1720
39.624	1720
39.632	1722
39.64	1725
39.648	1728
39.656	1730
39.664	1731
39.672	1732
39.68	1732
39.688	1734
39.696	1743
39.704	1760
39.712	1782
39.72	1810
39.728	1845
39.736	1887.00000000004
39.744	1931
39.752	1974
39.76	2013
39.768	2050
39.776	2083
39.784	2112
39.792	2138
39.8	2159.00000000001
39.808	2172
39.816	2176
39.824	2172
39.832	2160
39.84	2142
39.848	2120
39.856	2094
39.864	2064.99999999997
39.872	2035
39.88	2008
39.888	1985
39.896	1965
39.904	1947
39.912	1930
39.92	1913
39.928	1898.99999999999
39.936	1888
39.944	1878
39.952	1869
39.96	1861
39.968	1853
39.976	1845
39.984	1838
39.992	1833
40	1829
40.008	1823
40.016	1818
40.024	1813
40.032	1807
40.04	1802
40.048	1795
40.056	1786
40.064	1777
40.072	1767
40.08	1756
40.088	1746
40.096	1739
40.104	1736
40.112	1734
40.12	1733
40.128	1733
40.136	1733
40.144	1733
40.152	1732
40.16	1725.99999999999
40.168	1719
40.176	1716
40.184	1714
40.192	1710
40.2	1705
40.208	1703
40.216	1702
40.224	1701
40.232	1701
40.24	1701
40.248	1701
40.256	1698
40.264	1690
40.272	1683
40.28	1680
40.288	1678
40.296	1677
40.304	1680
40.312	1684
40.32	1686
40.328	1684
40.336	1680
40.344	1678
40.352	1677
40.36	1677
40.368	1677
40.376	1677
40.384	1677
40.392	1677
40.4	1674
40.408	1669
40.416	1664
40.424	1658
40.432	1652
40.44	1646
40.448	1643
40.456	1642
40.464	1641
40.472	1644
40.48	1651.00000000001
40.488	1664
40.496	1682
40.504	1706
40.512	1736
40.52	1772
40.528	1818
40.536	1875
40.544	1940.00000000006
40.552	2009
40.56	2078
40.568	2142
40.576	2204
40.584	2262
40.592	2313
40.6	2358
40.608	2392.00000000002
40.616	2412
40.624	2419
40.632	2417
40.64	2404
40.648	2378
40.656	2343
40.664	2302
40.672	2256.99999999996
40.68	2211
40.688	2166
40.696	2127
40.704	2093
40.712	2058
40.72	2025
40.728	1997
40.736	1970.99999999998
40.744	1946
40.752	1924
40.76	1910
40.768	1900
40.776	1892
40.784	1888
40.792	1886
40.8	1885
40.808	1888
40.816	1892
40.824	1894
40.832	1895
40.84	1896
40.848	1893
40.856	1889
40.864	1887
40.872	1886
40.88	1882
40.888	1877
40.896	1872
40.904	1862
40.912	1853
40.92	1846
40.928	1835.99999999999
40.936	1828
40.944	1821
40.952	1815
40.96	1812
40.968	1810
40.976	1809
40.984	1806
40.992	1801
41	1796
41.008	1787
41.016	1780
41.024	1773
41.032	1763.99999999999
41.04	1750
41.048	1737
41.056	1731
41.064	1728
41.072	1726
41.08	1725
41.088	1725
41.096	1725
41.104	1725
41.112	1725
41.12	1725
41.128	1725
41.136	1725
41.144	1725
41.152	1725
41.16	1725
41.168	1725
41.176	1725
41.184	1725
41.192	1725
41.2	1725
41.208	1725
41.216	1728
41.224	1732
41.232	1734
41.24	1732
41.248	1728
41.256	1726
41.264	1725
41.272	1728
41.28	1735
41.288	1748.00000000001
41.296	1766
41.304	1793
41.312	1832
41.32	1882
41.328	1946
41.336	2018
41.344	2097
41.352	2185.00000000008
41.36	2278
41.368	2370
41.376	2458
41.384	2539
41.392	2611
41.4	2671
41.408	2719
41.416	2755.00000000002
41.424	2776
41.432	2783
41.44	2775
41.448	2753
41.456	2724
41.464	2684
41.472	2636
41.48	2587.99999999996
41.488	2540
41.496	2492
41.504	2444
41.512	2395
41.52	2346
41.528	2300
41.536	2259
41.544	2223.99999999997
41.552	2194
41.56	2170
41.568	2149
41.576	2129
41.584	2115
41.592	2105
41.6	2097
41.608	2093
41.616	2091
41.624	2090
41.632	2086
41.64	2081
41.648	2076
41.656	2067
41.664	2057
41.672	2045.99999999999
41.68	2034
41.688	2025
41.696	2018
41.704	2011
41.712	2008
41.72	2003
41.728	1998
41.736	1991.99999999999
41.744	1983
41.752	1973
41.76	1962
41.768	1950
41.776	1938
41.784	1926
41.792	1914
41.8	1901.99999999999
41.808	1890
41.816	1874
41.824	1856
41.832	1841
41.84	1828
41.848	1815
41.856	1803
41.864	1790.99999999999
41.872	1779
41.88	1767
41.888	1755
41.896	1743
41.904	1731
41.912	1722
41.92	1714
41.928	1707
41.936	1704
41.944	1702
41.952	1701
41.96	1701
41.968	1701
41.976	1701
41.984	1701
41.992	1701
42	1701
42.008	1698
42.016	1693
42.024	1691
42.032	1687
42.04	1679
42.048	1672
42.056	1668
42.064	1666
42.072	1665
42.08	1668
42.088	1672
42.096	1677.00000000001
42.104	1686
42.112	1696
42.12	1707
42.128	1722
42.136	1744
42.144	1776
42.152	1823
42.16	1884.00000000006
42.168	1950
42.176	2020
42.184	2086
42.192	2143
42.2	2193
42.208	2185
42.216	2143
42.224	2125.99999999999
42.232	2117
42.24	2111
42.248	2104
42.256	2094
42.264	2079
42.272	2060
42.28	2036
42.288	2009.99999999998
42.296	1985
42.304	1959
42.312	1931
42.32	1904
42.328	1878
42.336	1855
42.344	1836
42.352	1817.99999999999
42.36	1803
42.368	1792
42.376	1782
42.384	1775
42.392	1770
42.4	1765
42.408	1761
42.416	1755
42.424	1750
42.432	1745
42.44	1739
42.448	1734
42.456	1731
42.464	1728
42.472	1724
42.48	1722
42.488	1721
42.496	1721
42.504	1719
42.512	1716
42.52	1714
42.528	1713
42.536	1713
42.544	1715
42.552	1718
42.56	1719
42.568	1720
42.576	1718
42.584	1715
42.592	1712
42.6	1708
42.608	1704
42.616	1700
42.624	1700
42.632	1702
42.64	1703
42.648	1702
42.656	1699
42.664	1700
42.672	1702
42.68	1703
42.688	1704
42.696	1702
42.704	1699
42.712	1696
42.72	1692
42.728	1692
42.736	1696
42.744	1702
42.752	1709
42.76	1715
42.768	1718
42.776	1719
42.784	1720
42.792	1720
42.8	1720
42.808	1720
42.816	1720
42.824	1720
42.832	1720
42.84	1720
42.848	1718
42.856	1715
42.864	1714
42.872	1713
42.88	1715
42.888	1718
42.896	1719
42.904	1720
42.912	1720
42.92	1722
42.928	1727.00000000001
42.936	1736
42.944	1748
42.952	1764
42.96	1788
42.968	1818
42.976	1854
42.984	1897
42.992	1941.00000000004
43	1981
43.008	2019
43.016	2054
43.024	2083
43.032	2106.00000000001
43.04	2119
43.048	2126
43.056	2127
43.064	2122
43.072	2111
43.08	2096
43.088	2076
43.096	2051.99999999998
43.104	2026
43.112	2001
43.12	1977
43.128	1955
43.136	1935
43.144	1916
43.152	1898
43.16	1880.99999999999
43.168	1867
43.176	1854
43.184	1841
43.192	1831
43.2	1822
43.208	1815
43.216	1810
43.224	1805
43.232	1803
43.24	1802
43.248	1799
43.256	1796
43.264	1794
43.272	1793
43.28	1791
43.288	1788
43.296	1784
43.304	1776
43.312	1766
43.32	1757
43.328	1749
43.336	1741
43.344	1735
43.352	1730
43.36	1725
43.368	1723
43.376	1722
43.384	1721
43.392	1721
43.4	1721
43.408	1721
43.416	1721
43.424	1721
43.432	1721
43.44	1721
43.448	1721
43.456	1719
43.464	1716
43.472	1714
43.48	1715
43.488	1718
43.496	1719
43.504	1720
43.512	1720
43.52	1720
43.528	1720
43.536	1720
43.544	1720
43.552	1720
43.56	1720
43.568	1720
43.576	1720
43.584	1720
43.592	1720
43.6	1720
43.608	1720
43.616	1720
43.624	1720
43.632	1720
43.64	1720
43.648	1720
43.656	1720
43.664	1720
43.672	1720
43.68	1722
43.688	1725
43.696	1729
43.704	1735
43.712	1742
43.72	1749
43.728	1759
43.736	1774.00000000002
43.744	1795
43.752	1824
43.76	1859
43.768	1902
43.776	1949
43.784	1997
43.792	2064
43.8	2104.00000000003
43.808	2138
43.816	2179
43.824	2198
43.832	2209
43.84	2213
43.848	2207
43.856	2197
43.864	2179.99999999998
43.872	2150
43.88	2125
43.888	2097
43.896	2067
43.904	2036
43.912	2008
43.92	1984
43.928	1961.99999999998
43.936	1943
43.944	1927
43.952	1914
43.96	1903
43.968	1896
43.976	1890
43.984	1883
43.992	1878
44	1873
44.008	1867
44.016	1862
44.024	1857
44.032	1853
44.04	1849
44.048	1845
44.056	1843
44.064	1842
44.072	1841
44.08	1839
44.088	1836
44.096	1832
44.104	1826
44.112	1819
44.12	1812
44.128	1804
44.136	1798
44.144	1793
44.152	1789
44.16	1785
44.168	1779
44.176	1772
44.184	1764
44.192	1756
44.2	1748
44.208	1742
44.216	1737
44.224	1730.99999999999
44.232	1724
44.24	1718
44.248	1715
44.256	1714
44.264	1713
44.272	1713
44.28	1713
44.288	1713
44.296	1713
44.304	1713
44.312	1713
44.32	1713
44.328	1713
44.336	1713
44.344	1713
44.352	1713
44.36	1713
44.368	1713
44.376	1713
44.384	1713
44.392	1713
44.4	1713
44.408	1713
44.416	1713
44.424	1713
44.432	1713
44.44	1713
44.448	1713
44.456	1713
44.464	1713
44.472	1713
44.48	1713
44.488	1715
44.496	1718
44.504	1722
44.512	1733
44.52	1754
44.528	1782
44.536	1819
44.544	1867.00000000005
44.552	1926
44.56	1992
44.568	2060
44.576	2129
44.584	2202
44.592	2273
44.6	2338
44.608	2391.00000000004
44.616	2427
44.624	2448
44.632	2455
44.64	2450
44.648	2435
44.656	2416
44.664	2391
44.672	2361.99999999997
44.68	2327
44.688	2284
44.696	2233
44.704	2178
44.712	2127
44.72	2082
44.728	2041
44.736	2006.99999999997
44.744	1976
44.752	1951
44.76	1930
44.768	1910
44.776	1894
44.784	1880
44.792	1867
44.8	1854.99999999999
44.808	1844
44.816	1833
44.824	1822
44.832	1813
44.84	1806
44.848	1799
44.856	1796
44.864	1791
44.872	1786
44.88	1780
44.888	1771
44.896	1761
44.904	1750
44.912	1738
44.92	1727
44.928	1720
44.936	1716
44.944	1714
44.952	1713
44.96	1713
44.968	1713
44.976	1713
44.984	1713
44.992	1713
45	1713
45.008	1713
45.016	1713
45.024	1713
45.032	1713
45.04	1713
45.048	1713
45.056	1713
45.064	1713
45.072	1713
45.08	1713
45.088	1713
45.096	1713
45.104	1713
45.112	1713
45.12	1713
45.128	1713
45.136	1713
45.144	1713
45.152	1713
45.16	1713
45.168	1713
45.176	1715
45.184	1718
45.192	1719
45.2	1720
45.208	1723
45.216	1728
45.224	1730
45.232	1731
45.24	1732
45.248	1732
45.256	1732
45.264	1732
45.272	1732
45.28	1732
45.288	1735
45.296	1746
45.304	1763
45.312	1787
45.32	1819
45.328	1858
45.336	1903
45.344	1955
45.352	2013.00000000005
45.36	2077
45.368	2147
45.376	2225
45.384	2308
45.392	2387
45.4	2462
45.408	2531
45.416	2589.00000000004
45.424	2633
45.432	2661
45.44	2672
45.448	2671
45.456	2662
45.464	2642
45.472	2612
45.48	2576.99999999997
45.488	2539
45.496	2497
45.504	2456
45.512	2414
45.52	2373
45.528	2333
45.536	2295
45.544	2261.99999999997
45.552	2231
45.56	2204
45.568	2178
45.576	2156
45.584	2139
45.592	2125
45.6	2112
45.608	2102
45.616	2100
45.624	2102
45.632	2103
45.64	2101
45.648	2097
45.656	2093
45.664	2086
45.672	2079
45.68	2076
45.688	2074
45.696	2073
45.704	2070
45.712	2065
45.72	2063
45.728	2062
45.736	2058
45.744	2053
45.752	2048
45.76	2039
45.768	2032
45.776	2025
45.784	2019
45.792	2013
45.8	2006.99999999999
45.808	2001
45.816	1995
45.824	1989
45.832	1980
45.84	1970
45.848	1960
45.856	1949
45.864	1937.99999999999
45.872	1926
45.88	1917
45.888	1910
45.896	1900
45.904	1892
45.912	1885
45.92	1879
45.928	1872.99999999999
45.936	1867
45.944	1864
45.952	1859
45.96	1854
45.968	1848
45.976	1840
45.984	1831
45.992	1823.99999999999
46	1817
46.008	1811
46.016	1808
46.024	1806
46.032	1802
46.04	1794
46.048	1784
46.056	1772.99999999999
46.064	1765
46.072	1758
46.08	1748
46.088	1737
46.096	1728.99999999999
46.104	1723
46.112	1718
46.12	1715
46.128	1716
46.136	1724
46.144	1743
46.152	1771
46.16	1805.00000000003
46.168	1848
46.176	1901
46.184	1963
46.192	2026
46.2	2086
46.208	2145
46.216	2201
46.224	2250.00000000004
46.232	2289
46.24	2317
46.248	2331
46.256	2333
46.264	2325
46.272	2265
46.28	2178
46.288	2119.99999999995
46.296	2075
46.304	2035
46.312	1997
46.32	1962
46.328	1928
46.336	1895
46.344	1865
46.352	1837.99999999998
46.36	1815
46.368	1795
46.376	1776
46.384	1759
46.392	1744
46.4	1729
46.408	1717
46.416	1706.99999999999
46.424	1698
46.432	1688
46.44	1678
46.448	1671
46.456	1668
46.464	1666
46.472	1665
46.48	1665
46.488	1665
46.496	1665
46.504	1665
46.512	1665
46.52	1663
46.528	1660
46.536	1656
46.544	1648.99999999999
46.552	1643
46.56	1640
46.568	1636
46.576	1634
46.584	1635
46.592	1636
46.6	1636
46.608	1634
46.616	1631
46.624	1628
46.632	1624
46.64	1622
46.648	1621
46.656	1621
46.664	1621
46.672	1621
46.68	1621
46.688	1619
46.696	1616
46.704	1611
46.712	1606
46.72	1603
46.728	1602
46.736	1601
46.744	1601
46.752	1601
46.76	1601
46.768	1601
46.776	1601
46.784	1601
46.792	1601
46.8	1601
46.808	1601
46.816	1601
46.824	1601
46.832	1601
46.84	1599
46.848	1596
46.856	1596
46.864	1598
46.872	1599
46.88	1600
46.888	1603
46.896	1608
46.904	1610
46.912	1611
46.92	1612
46.928	1614
46.936	1619
46.944	1629
46.952	1643
46.96	1659
46.968	1678
46.976	1703
46.984	1737
46.992	1776.00000000004
47	1818
47.008	1865
47.016	1912
47.024	1953
47.032	1990.00000000003
47.04	2019
47.048	2041
47.056	2055.00000000001
47.064	2062
47.072	2062
47.08	2055
47.088	2043
47.096	2024.99999999998
47.104	2002
47.112	1977
47.12	1952
47.128	1925
47.136	1898
47.144	1870
47.152	1842
47.16	1816.99999999998
47.168	1796
47.176	1778
47.184	1762
47.192	1747
47.2	1736
47.208	1725
47.216	1715
47.224	1705.99999999999
47.232	1697
47.24	1691
47.248	1685
47.256	1677
47.264	1671
47.272	1668
47.28	1666
47.288	1665
47.296	1665
47.304	1665
47.312	1665
47.32	1665
47.328	1665
47.336	1665
47.344	1665
47.352	1665
47.36	1665
47.368	1665
47.376	1665
47.384	1665
47.392	1665
47.4	1665
47.408	1665
47.416	1665
47.424	1665
47.432	1665
47.44	1665
47.448	1665
47.456	1665
47.464	1665
47.472	1665
47.48	1665
47.488	1665
47.496	1663
47.504	1660
47.512	1658
47.52	1657
47.528	1657
47.536	1657
47.544	1659
47.552	1662
47.56	1663
47.568	1664
47.576	1664
47.584	1662
47.592	1659
47.6	1658
47.608	1657
47.616	1657
47.624	1657
47.632	1657
47.64	1657
47.648	1657
47.656	1657
47.664	1657
47.672	1657
47.68	1657
47.688	1657
47.696	1657
47.704	1659
47.712	1662
47.72	1663
47.728	1664
47.736	1664
47.744	1666
47.752	1672
47.76	1680
47.768	1693
47.776	1714
47.784	1742
47.792	1781
47.8	1828.00000000004
47.808	1876
47.816	1923
47.824	1970
47.832	2014
47.84	2054
47.848	2088
47.856	2114
47.864	2131.00000000001
47.872	2140
47.88	2142
47.888	2136
47.896	2124
47.904	2107
47.912	2085
47.92	2060
47.928	2030.99999999997
47.936	1999
47.944	1967
47.952	1937
47.96	1911
47.968	1889
47.976	1868
47.984	1848
47.992	1828.99999999998
48	1813
48.008	1801
48.016	1790
48.024	1781
48.032	1775
48.04	1770
48.048	1765
48.056	1761
48.064	1759
48.072	1756
48.08	1749
48.088	1741
48.096	1732.99999999999
48.104	1727
48.112	1721
48.12	1712.99999999999
48.128	1707
48.136	1702
48.144	1697
48.152	1693
48.16	1685.99999999999
48.168	1677
48.176	1671
48.184	1668
48.192	1666
48.2	1665
48.208	1665
48.216	1665
48.224	1665
48.232	1663
48.24	1660
48.248	1658
48.256	1655
48.264	1652
48.272	1652
48.28	1654
48.288	1655
48.296	1656
48.304	1656
48.312	1656
48.32	1677
48.328	1709
48.336	1725
48.344	1733
48.352	1740.00000000001
48.36	1746
48.368	1749
48.376	1754
48.384	1759
48.392	1762
48.4	1763
48.408	1764
48.416	1764
48.424	1764
48.432	1764
48.44	1764
48.448	1764
48.456	1764
48.464	1764
48.472	1764
48.48	1764
48.488	1764
48.496	1764
48.504	1764
48.512	1764
48.52	1764
48.528	1764
48.536	1764
48.544	1764
48.552	1767
48.56	1775
48.568	1789
48.576	1812
48.584	1845
48.592	1890
48.6	1946
48.608	2015.00000000006
48.616	2091
48.624	2164
48.632	2232
48.64	2297
48.648	2355
48.656	2403
48.664	2443
48.672	2473.00000000002
48.68	2491
48.688	2497
48.696	2493
48.704	2481
48.712	2460
48.72	2430
48.728	2396
48.736	2356.99999999996
48.744	2309
48.752	2257
48.76	2209
48.768	2166
48.776	2126
48.784	2090
48.792	2062
48.8	2038.99999999998
48.808	2019
48.816	2003
48.824	1988
48.832	1973
48.84	1960
48.848	1947
48.856	1938
48.864	1929.99999999999
48.872	1923
48.88	1917
48.888	1911
48.896	1904
48.904	1896
48.912	1889
48.92	1880
48.928	1868.99999999999
48.936	1858
48.944	1846
48.952	1834
48.96	1821
48.968	1805
48.976	1788
48.984	1773
48.992	1762.99999999999
49	1758
49.008	1755
49.016	1754
49.024	1753
49.032	1750
49.04	1742
49.048	1732
49.056	1723.99999999999
49.064	1717
49.072	1711
49.08	1708
49.088	1706
49.096	1705
49.104	1705
49.112	1708
49.12	1712
49.128	1714
49.136	1718
49.144	1723
49.152	1723
49.16	1720
49.168	1718
49.176	1717
49.184	1717
49.192	1717
49.2	1717
49.208	1720
49.216	1724
49.224	1729.00000000001
49.232	1738
49.24	1745
49.248	1752
49.256	1758
49.264	1761
49.272	1763
49.28	1764
49.288	1764
49.296	1764
49.304	1764
49.312	1764
49.32	1764
49.328	1767
49.336	1772
49.344	1777
49.352	1786.00000000001
49.36	1797
49.368	1816
49.376	1843
49.384	1882
49.392	1936
49.4	2001
49.408	2075
49.416	2156.00000000007
49.424	2243
49.432	2337
49.44	2428
49.448	2508
49.456	2577
49.464	2634
49.472	2677
49.48	2705.00000000002
49.488	2719
49.496	2720
49.504	2708
49.512	2689
49.52	2664
49.528	2629
49.536	2593
49.544	2556.99999999997
49.552	2517
49.56	2475
49.568	2429
49.576	2380
49.584	2330
49.592	2280
49.6	2233
49.608	2193.99999999997
49.616	2167
49.624	2151
49.632	2140
49.64	2137
49.648	2139
49.656	2140
49.664	2140
49.672	2140
49.68	2140
49.688	2140
49.696	2137
49.704	2133
49.712	2131
49.72	2130
49.728	2126
49.736	2121
49.744	2116
49.752	2110
49.76	2107
49.768	2106
49.776	2105
49.784	2105
49.792	2105
49.8	2105
49.808	2102
49.816	2097
49.824	2095
49.832	2094
49.84	2090
49.848	2085
49.856	2083
49.864	2079
49.872	2074
49.88	2067
49.888	2060
49.896	2056
49.904	2054
49.912	2057
49.92	2063
49.928	2069.00000000001
49.936	2075
49.944	2081
49.952	2087
49.96	2090
49.968	2094
49.976	2099
49.984	2102
49.992	2103
50	2104
50.008	2104
50.016	2104
50.024	2104
50.032	2104
50.04	2104
50.048	2107
50.056	2112
50.064	2117
50.072	2123
50.08	2123
50.088	2120
50.096	2115
50.104	2110
50.112	2107
50.12	2106
50.128	2105
50.136	2105
50.144	2108
50.152	2112
50.16	2117.00000000001
50.168	2130
50.176	2146
50.184	2163
50.192	2191
50.2	2230
50.208	2280
50.216	2343
50.224	2416.00000000007
50.232	2496
50.24	2577
50.248	2656
50.256	2730
50.264	2795
50.272	2853
50.28	2898
50.288	2923.00000000001
50.296	2933
50.304	2932
50.312	2918
50.32	2892
50.328	2857
50.336	2811
50.344	2760
50.352	2705.99999999995
50.36	2644
50.368	2496
50.376	2316
50.384	2209
50.392	2139
50.4	2088
50.408	2048
50.416	2015.99999999997
50.424	1990
50.432	1970
50.44	1955
50.448	1944
50.456	1932
50.464	1920
50.472	1910
50.48	1900.99999999999
50.488	1893
50.496	1887
50.504	1882
50.512	1877
50.52	1873
50.528	1867
50.536	1860
50.544	1851.99999999999
50.552	1844
50.56	1837
50.568	1829
50.576	1819
50.584	1810
50.592	1801
50.6	1793
50.608	1782.99999999999
50.616	1772
50.624	1762
50.632	1753
50.64	1745
50.648	1737
50.656	1729
50.664	1721
50.672	1713.99999999999
50.68	1709
50.688	1707
50.696	1706
50.704	1705
50.712	1705
50.72	1703
50.728	1700
50.736	1698
50.744	1697
50.752	1697
50.76	1695
50.768	1692
50.776	1690
50.784	1689
50.792	1687
50.8	1684
50.808	1682
50.816	1681
50.824	1681
50.832	1681
50.84	1681
50.848	1681
50.856	1681
50.864	1683
50.872	1686
50.88	1689
50.888	1693
50.896	1697
50.904	1701
50.912	1701
50.92	1699
50.928	1700
50.936	1702
50.944	1703
50.952	1704
50.96	1704
50.968	1705
50.976	1707
50.984	1708
50.992	1710
51	1715
51.008	1724
51.016	1740
51.024	1762
51.032	1788.00000000003
51.04	1820
51.048	1858
51.056	1897.00000000003
51.064	1932
51.072	1964
51.08	1994
51.088	2021
51.096	2045.00000000002
51.104	2063
51.112	2074
51.12	2077
51.128	2073
51.136	2063
51.144	2048
51.152	2028
51.16	2005.99999999998
51.168	1982
51.176	1959
51.184	1937.99999999998
51.192	1915
51.2	1892
51.208	1870
51.216	1852
51.224	1837.99999999999
51.232	1827
51.24	1820
51.248	1814
51.256	1809
51.264	1805
51.272	1801
51.28	1797
51.288	1793
51.296	1789
51.304	1785
51.312	1783
51.32	1782
51.328	1781
51.336	1779
51.344	1776
51.352	1772
51.36	1768
51.368	1764
51.376	1758
51.384	1753
51.392	1749
51.4	1743
51.408	1738
51.416	1733
51.424	1727
51.432	1719
51.44	1712
51.448	1708
51.456	1706
51.464	1705
51.472	1705
51.48	1703
51.488	1700
51.496	1698
51.504	1697
51.512	1699
51.52	1702
51.528	1703
51.536	1704
51.544	1704
51.552	1704
51.56	1704
51.568	1704
51.576	1704
51.584	1704
51.592	1704
51.6	1704
51.608	1704
51.616	1704
51.624	1704
51.632	1704
51.64	1704
51.648	1704
51.656	1704
51.664	1704
51.672	1704
51.68	1704
51.688	1704
51.696	1704
51.704	1704
51.712	1704
51.72	1704
51.728	1704
51.736	1704
51.744	1704
51.752	1704
51.76	1704
51.768	1705
51.776	1707
51.784	1710
51.792	1715
51.8	1724.00000000001
51.808	1734
51.816	1747
51.824	1766
51.832	1789
51.84	1818
51.848	1853
51.856	1893
51.864	1932.00000000003
51.872	1970
51.88	2009
51.888	2046
51.896	2077
51.904	2103
51.912	2122
51.92	2133
51.928	2139
51.936	2140
51.944	2134
51.952	2123
51.96	2109
51.968	2089
51.976	2065
51.984	2039
51.992	2009.99999999997
52	1982
52.008	1959
52.016	1940
52.024	1922
52.032	1906.99999999999
52.04	1896
52.048	1886
52.056	1879
52.064	1876
52.072	1874
52.08	1871
52.088	1868
52.096	1864
52.104	1860
52.112	1858
52.12	1855
52.128	1852
52.136	1850
52.144	1849
52.152	1849
52.16	1849
52.168	1847
52.176	1844
52.184	1840
52.192	1836
52.2	1833
52.208	1831
52.216	1828
52.224	1824
52.232	1820
52.24	1816
52.248	1812
52.256	1806
52.264	1801
52.272	1795
52.28	1786
52.288	1776.99999999999
52.296	1769
52.304	1761
52.312	1753
52.32	1747
52.328	1742
52.336	1737
52.344	1733
52.352	1726.99999999999
52.36	1719
52.368	1712
52.376	1708
52.384	1706
52.392	1705
52.4	1705
52.408	1705
52.416	1704
52.424	1702
52.432	1701
52.44	1701
52.448	1701
52.456	1701
52.464	1701
52.472	1701
52.48	1701
52.488	1701
52.496	1701
52.504	1701
52.512	1701
52.52	1701
52.528	1701
52.536	1701
52.544	1701
52.552	1701
52.56	1701
52.568	1701
52.576	1704
52.584	1708
52.592	1714
52.6	1724
52.608	1735.00000000001
52.616	1753
52.624	1781
52.632	1820
52.64	1873
52.648	1941
52.656	2016
52.664	2091
52.672	2167.00000000007
52.68	2240
52.688	2308
52.696	2370
52.704	2419
52.712	2454
52.72	2478
52.728	2493
52.736	2498
52.744	2493
52.752	2481
52.76	2463
52.768	2438
52.776	2403
52.784	2364
52.792	2322
52.8	2275.99999999996
52.808	2228
52.816	2182
52.824	2140
52.832	2107
52.84	2081
52.848	2058
52.856	2040
52.864	2024.99999999999
52.872	2012
52.88	1998
52.888	1984
52.896	1974
52.904	1966
52.912	1959
52.92	1956
52.928	1954
52.936	1953
52.944	1953
52.952	1950
52.96	1945
52.968	1940
52.976	1931
52.984	1924
52.992	1916.99999999999
53	1911
53.008	1904
53.016	1893
53.024	1885
53.032	1877.99999999999
53.04	1871
53.048	1865
53.056	1855.99999999999
53.064	1848
53.072	1841
53.08	1832
53.088	1824
53.096	1815.99999999999
53.104	1808
53.112	1801
53.12	1794.99999999999
53.128	1789
53.136	1780
53.144	1772
53.152	1765
53.16	1755.99999999999
53.168	1745
53.176	1733
53.184	1719.99999999999
53.192	1710
53.2	1705
53.208	1703
53.216	1702
53.224	1701
53.232	1701
53.24	1701
53.248	1701
53.256	1698
53.264	1693
53.272	1691
53.28	1690
53.288	1689
53.296	1689
53.304	1692
53.312	1696
53.32	1698
53.328	1699
53.336	1700
53.344	1700
53.352	1700
53.36	1700
53.368	1700
53.376	1700
53.384	1700
53.392	1700
53.4	1700
53.408	1703
53.416	1715.00000000001
53.424	1734
53.432	1762
53.44	1801
53.448	1852
53.456	1918
53.464	1995
53.472	2075
53.48	2156.00000000007
53.488	2237
53.496	2316
53.504	2386
53.512	2443
53.52	2485
53.528	2512
53.536	2528
53.544	2533
53.552	2530
53.56	2515
53.568	2492
53.576	2465
53.584	2433
53.592	2395
53.6	2351
53.608	2302.99999999996
53.616	2257
53.624	2212
53.632	2164
53.64	2122
53.648	2088
53.656	2058
53.664	2034
53.672	2018.99999999999
53.68	2012
53.688	2008
53.696	2009
53.704	2013
53.712	2018
53.72	2023
53.728	2026
53.736	2027
53.744	2031
53.752	2036
53.76	2038
53.768	2039
53.776	2040
53.784	2040
53.792	2037
53.8	2033
53.808	2031
53.816	2030
53.824	2029
53.832	2029
53.84	2029
53.848	2029
53.856	2029
53.864	2026
53.872	2021
53.88	2016
53.888	2010
53.896	2007
53.904	2003
53.912	1998
53.92	1991
53.928	1984
53.936	1980
53.944	1982
53.952	1988
53.96	1990
53.968	1991
53.976	1992
53.984	1988
53.992	1978.99999999999
54	1972
54.008	1968
54.016	1966
54.024	1968
54.032	1972
54.04	1974
54.048	1975
54.056	1976
54.064	1976
54.072	1976
54.08	1973
54.088	1969
54.096	1970
54.104	1973
54.112	1979
54.12	1989.00000000001
54.128	2000
54.136	2010
54.144	2013
54.152	2013
54.16	2008
54.168	2006
54.176	2008
54.184	2018.00000000001
54.192	2047
54.2	2071
54.208	2100
54.216	2157
54.224	2212.00000000005
54.232	2277
54.24	2354
54.248	2439.00000000008
54.256	2530
54.264	2623
54.272	2714
54.28	2830
54.288	2892.00000000005
54.296	2937
54.304	2976
54.312	2983
54.32	2978
54.328	2960
54.336	2932
54.344	2899
54.352	2860.99999999996
54.36	2816
54.368	2765
54.376	2709
54.384	2649
54.392	2591
54.4	2537
54.408	2488
54.416	2443.99999999996
54.424	2403
54.432	2294
54.44	2156
54.448	2080
54.456	2034
54.464	2005
54.472	1988
54.48	1975.99999999999
54.488	1966
54.496	1957
54.504	1949
54.512	1941
54.52	1934
54.528	1927
54.536	1918
54.544	1908.99999999999
54.552	1905
54.56	1901
54.568	1897
54.576	1893
54.584	1889
54.592	1885
54.6	1880
54.608	1873.99999999999
54.616	1867
54.624	1858
54.632	1847
54.64	1839
54.648	1830
54.656	1819
54.664	1808
54.672	1795.99999999999
54.68	1787
54.688	1782
54.696	1777
54.704	1771
54.712	1764
54.72	1756
54.728	1748
54.736	1738.99999999999
54.744	1730
54.752	1721
54.76	1713
54.768	1703
54.776	1693
54.784	1685
54.792	1679
54.8	1674
54.808	1669
54.816	1667
54.824	1666
54.832	1665
54.84	1665
54.848	1667
54.856	1670
54.864	1671
54.872	1672
54.88	1672
54.888	1672
54.896	1672
54.904	1672
54.912	1672
54.92	1672
54.928	1672
54.936	1672
54.944	1672
54.952	1672
54.96	1672
54.968	1672
54.976	1672
54.984	1672
54.992	1672
55	1674
55.008	1680
55.016	1690
55.024	1703
55.032	1721.00000000002
55.04	1746
55.048	1777
55.056	1812.00000000003
55.064	1847
55.072	1883
55.08	1918
55.088	1948
55.096	1974.00000000002
55.104	1996
55.112	2012
55.12	2022.00000000001
55.128	2027
55.136	2028
55.144	2025
55.152	2017
55.16	2000.99999999998
55.168	1982
55.176	1960
55.184	1935.99999999998
55.192	1911
55.2	1886
55.208	1860
55.216	1834
55.224	1809.99999999998
55.232	1789
55.24	1771
55.248	1755.99999999999
55.256	1746
55.264	1740
55.272	1734
55.28	1729
55.288	1725
55.296	1719
55.304	1712
55.312	1706
55.32	1701
55.328	1697
55.336	1693
55.344	1689
55.352	1686
55.36	1681
55.368	1677
55.376	1675
55.384	1674
55.392	1673
55.4	1673
55.408	1673
55.416	1673
55.424	1673
55.432	1673
55.44	1671
55.448	1668
55.456	1666
55.464	1665
55.472	1665
55.48	1665
55.488	1665
55.496	1665
55.504	1665
55.512	1665
55.52	1663
55.528	1660
55.536	1658
55.544	1659
55.552	1662
55.56	1663
55.568	1664
55.576	1664
55.584	1664
55.592	1664
55.6	1664
55.608	1664
55.616	1666
55.624	1669
55.632	1671
55.64	1672
55.648	1672
55.656	1672
55.664	1672
55.672	1672
55.68	1672
55.688	1672
55.696	1672
55.704	1672
55.712	1672
55.72	1672
55.728	1672
55.736	1672
55.744	1672
55.752	1672
55.76	1672
55.768	1672
55.776	1672
55.784	1672
55.792	1672
55.8	1672
55.808	1674
55.816	1678
55.824	1685
55.832	1699
55.84	1719
55.848	1743
55.856	1774
55.864	1812.00000000004
55.872	1853
55.88	1894
55.888	1932
55.896	1969
55.904	2003
55.912	2031
55.92	2054
55.928	2071.00000000001
55.936	2082
55.944	2087
55.952	2088
55.96	2082
55.968	2070
55.976	2053
55.984	2032
55.992	2006.99999999998
56	1978
56.008	1946
56.016	1917
56.024	1894
56.032	1874.99999999998
56.04	1858
56.048	1842
56.056	1828.99999999999
56.064	1819
56.072	1810
56.08	1801
56.088	1793
56.096	1787
56.104	1783
56.112	1778
56.12	1773
56.128	1769
56.136	1763
56.144	1758
56.152	1753
56.16	1747
56.168	1742
56.176	1738
56.184	1733
56.192	1727
56.2	1720
56.208	1712
56.216	1704
56.224	1695.99999999999
56.232	1689
56.24	1683
56.248	1678
56.256	1675
56.264	1674
56.272	1673
56.28	1673
56.288	1673
56.296	1673
56.304	1673
56.312	1673
56.32	1673
56.328	1673
56.336	1673
56.344	1673
56.352	1673
56.36	1671
56.368	1668
56.376	1666
56.384	1665
56.392	1665
56.4	1665
56.408	1665
56.416	1665
56.424	1667
56.432	1670
56.44	1671
56.448	1672
56.456	1672
56.464	1672
56.472	1672
56.48	1678.00000000001
56.488	1687
56.496	1692
56.504	1694
56.512	1695
56.52	1696
56.528	1696
56.536	1696
56.544	1696
56.552	1696
56.56	1696
56.568	1696
56.576	1696
56.584	1696
56.592	1696
56.6	1696
56.608	1696
56.616	1699
56.624	1707
56.632	1724
56.64	1752
56.648	1792
56.656	1844
56.664	1905
56.672	1974.00000000006
56.68	2046
56.688	2120
56.696	2196
56.704	2270
56.712	2335
56.72	2390
56.728	2433
56.736	2461.00000000002
56.744	2475
56.752	2479
56.76	2475
56.768	2464
56.776	2442
56.784	2411
56.792	2374
56.8	2329.99999999996
56.808	2285
56.816	2240
56.824	2192
56.832	2149
56.84	2112
56.848	2077
56.856	2047
56.864	2022.99999999998
56.872	2001
56.88	1980
56.888	1963
56.896	1949
56.904	1939
56.912	1934
56.92	1927
56.928	1920
56.936	1916
56.944	1914
56.952	1910
56.96	1905
56.968	1900
56.976	1891
56.984	1881
56.992	1872.99999999999
57	1865
57.008	1854
57.016	1842
57.024	1830
57.032	1820.99999999999
57.04	1814
57.048	1803
57.056	1790.99999999999
57.064	1776
57.072	1759
57.08	1744
57.088	1726
57.096	1710.99999999999
57.104	1704
57.112	1700
57.12	1698
57.128	1697
57.136	1697
57.144	1697
57.152	1697
57.16	1697
57.168	1697
57.176	1697
57.184	1697
57.192	1697
57.2	1697
57.208	1697
57.216	1697
57.224	1697
57.232	1697
57.24	1697
57.248	1697
57.256	1697
57.264	1697
57.272	1697
57.28	1697
57.288	1697
57.296	1697
57.304	1697
57.312	1697
57.32	1697
57.328	1697
57.336	1697
57.344	1697
57.352	1697
57.36	1697
57.368	1697
57.376	1697
57.384	1697
57.392	1697
57.4	1697
57.408	1697
57.416	1697
57.424	1697
57.432	1703
57.44	1719
57.448	1747
57.456	1790
57.464	1846
57.472	1912
57.48	1983.00000000006
57.488	2054
57.496	2121
57.504	2184
57.512	2241
57.52	2292
57.528	2336
57.536	2374
57.544	2403.00000000002
57.552	2422
57.56	2431
57.568	2429
57.576	2412
57.584	2384
57.592	2347
57.6	2303
57.608	2251.99999999995
57.616	2194
57.624	2137
57.632	2087
57.64	2042
57.648	2003
57.656	1972
57.664	1943
57.672	1918.99999999998
57.68	1898
57.688	1877
57.696	1860
57.704	1845
57.712	1835
57.72	1830
57.728	1827
57.736	1826
57.744	1825
57.752	1822
57.76	1817
57.768	1812
57.776	1802
57.784	1790
57.792	1778
57.8	1768.99999999999
57.808	1762
57.816	1752
57.824	1744
57.832	1736
57.84	1725
57.848	1714
57.856	1705
57.864	1701
57.872	1699
57.88	1698
57.888	1697
57.896	1697
57.904	1697
57.912	1697
57.92	1697
57.928	1697
57.936	1697
57.944	1697
57.952	1697
57.96	1697
57.968	1697
57.976	1694
57.984	1689
57.992	1690
58	1693
58.008	1695
58.016	1696
58.024	1696
58.032	1696
58.04	1696
58.048	1696
58.056	1696
58.064	1696
58.072	1696
58.08	1696
58.088	1696
58.096	1696
58.104	1696
58.112	1696
58.12	1699
58.128	1704
58.136	1706
58.144	1707
58.152	1711
58.16	1716
58.168	1718
58.176	1719
58.184	1720
58.192	1720
58.2	1717
58.208	1713
58.216	1711
58.224	1713
58.232	1724
58.24	1745
58.248	1781.00000000004
58.256	1835
58.264	1904
58.272	1982
58.28	2069
58.288	2161.00000000008
58.296	2255
58.304	2350
58.312	2435.00000000007
58.32	2510
58.328	2576
58.336	2632
58.344	2676
58.352	2704.00000000002
58.36	2718
58.368	2722
58.376	2715
58.384	2696
58.392	2666
58.4	2629
58.408	2583
58.416	2530.99999999995
58.424	2476
58.432	2419
58.44	2365
58.448	2316
58.456	2272
58.464	2234
58.472	2202
58.48	2175.99999999998
58.488	2157
58.496	2142
58.504	2127
58.512	2113
58.52	2103
58.528	2066
58.536	2015
58.544	1989.99999999998
58.552	1977
58.56	1971
58.568	1968
58.576	1966
58.584	1965
58.592	1962
58.6	1957
58.608	1955
58.616	1952
58.624	1948
58.632	1944
58.64	1940
58.648	1935
58.656	1928
58.664	1920
58.672	1913.99999999999
58.68	1908
58.688	1902
58.696	1897
58.704	1893
58.712	1889
58.72	1882
58.728	1875
58.736	1869.99999999999
58.744	1863
58.752	1855
58.76	1848
58.768	1842
58.776	1837
58.784	1833
58.792	1829
58.8	1823.99999999999
58.808	1816
58.816	1808
58.824	1802
58.832	1796
58.84	1788
58.848	1780
58.856	1771
58.864	1761.99999999999
58.872	1753
58.88	1744
58.888	1736
58.896	1730
58.904	1723
58.912	1715
58.92	1706
58.928	1696.99999999999
58.936	1688
58.944	1680
58.952	1674
58.96	1669
58.968	1667
58.976	1664
58.984	1660
58.992	1658
59	1657
59.008	1657
59.016	1657
59.024	1659
59.032	1664
59.04	1668
59.048	1673
59.056	1681.00000000001
59.064	1692
59.072	1709
59.08	1736
59.088	1772
59.096	1814.00000000004
59.104	1861
59.112	1911
59.12	1959.00000000004
59.128	2004
59.136	2045
59.144	2082
59.152	2109
59.16	2128.00000000001
59.168	2140
59.176	2143
59.184	2140
59.192	2131
59.2	2115
59.208	2091
59.216	2063
59.224	2029.99999999997
59.232	1994
59.24	1960
59.248	1926.99999999997
59.256	1897
59.264	1868
59.272	1839
59.28	1813
59.288	1789.99999999998
59.296	1769
59.304	1752
59.312	1735.99999999999
59.32	1721
59.328	1707
59.336	1693
59.344	1681
59.352	1673
59.36	1669
59.368	1669
59.376	1671
59.384	1672
59.392	1672
59.4	1672
59.408	1672
59.416	1672
59.424	1670
59.432	1667
59.44	1666
59.448	1665
59.456	1665
59.464	1665
59.472	1665
59.48	1663
59.488	1660
59.496	1658
59.504	1657
59.512	1654
59.52	1652
59.528	1654
59.536	1655
59.544	1656
59.552	1658
59.56	1659
59.568	1658
59.576	1657
59.584	1654
59.592	1649
59.6	1647
59.608	1646
59.616	1643
59.624	1640
59.632	1638
59.64	1637
59.648	1637
59.656	1637
59.664	1635
59.672	1632
59.68	1630
59.688	1629
59.696	1631
59.704	1634
59.712	1637
59.72	1641
59.728	1646
59.736	1651
59.744	1654
59.752	1655
59.76	1656
59.768	1656
59.776	1656
59.784	1653
59.792	1652
59.8	1654
59.808	1655
59.816	1658
59.824	1663
59.832	1668
59.84	1670
59.848	1671
59.856	1675
59.864	1680
59.872	1686
59.88	1698
59.888	1716
59.896	1741
59.904	1777
59.912	1821
59.92	1869
59.928	1919.00000000004
59.936	1965
59.944	2007
59.952	2045
59.96	2075
59.968	2097
59.976	2111
59.984	2115
59.992	2109.99999999999
60	2098
60.008	2082
60.016	2062
60.024	2038
60.032	2009.99999999997
60.04	1980
60.048	1951
60.056	1922.99999999998
60.064	1895
60.072	1867
60.08	1841
60.088	1818
60.096	1796.99999999998
60.104	1780
60.112	1766
60.12	1754.99999999999
60.128	1745
60.136	1735
60.144	1726
60.152	1716
60.16	1707.99999999999
60.168	1702
60.176	1697
60.184	1695
60.192	1692
60.2	1685
60.208	1679
60.216	1676
60.224	1674
60.232	1673
60.24	1673
60.248	1673
60.256	1673
60.264	1673
60.272	1673
60.28	1673
60.288	1671
60.296	1668
60.304	1664
60.312	1660
60.32	1658
60.328	1657
60.336	1657
60.344	1659
60.352	1662
60.36	1663
60.368	1664
60.376	1664
60.384	1664
60.392	1664
60.4	1664
60.408	1664
60.416	1664
60.424	1664
60.432	1664
60.44	1664
60.448	1664
60.456	1664
60.464	1664
60.472	1664
60.48	1664
60.488	1664
60.496	1664
60.504	1664
60.512	1664
60.52	1664
60.528	1666
60.536	1669
60.544	1671
60.552	1672
60.56	1672
60.568	1672
60.576	1692
60.584	1722
60.592	1737
60.6	1745
60.608	1749
60.616	1751
60.624	1752
60.632	1755
60.64	1760
60.648	1762
60.656	1767
60.664	1774
60.672	1780.00000000001
60.68	1792
60.688	1814
60.696	1848
60.704	1894
60.712	1952
60.72	2019
60.728	2088
60.736	2154.00000000006
60.744	2219
60.752	2281
60.76	2338
60.768	2385
60.776	2421
60.784	2445
60.792	2457
60.8	2460
60.808	2455
60.816	2444
60.824	2422
60.832	2391
60.84	2357
60.848	2318
60.856	2272
60.864	2222.99999999996
60.872	2177
60.88	2135
60.888	2095
60.896	2059
60.904	2028
60.912	2003
60.92	1984
60.928	1966.99999999999
60.936	1956
60.944	1947
60.952	1937
60.96	1926
60.968	1913
60.976	1903
60.984	1898
60.992	1895
61	1894
61.008	1893
61.016	1890
61.024	1885
61.032	1883
61.04	1879
61.048	1874
61.056	1867.99999999999
61.064	1859
61.072	1852
61.08	1844
61.088	1833
61.096	1821.99999999999
61.104	1810
61.112	1798
61.12	1784.99999999999
61.128	1775
61.136	1767
61.144	1760
61.152	1756
61.16	1754
61.168	1753
61.176	1753
61.184	1753
61.192	1750
61.2	1745
61.208	1743
61.216	1739
61.224	1734
61.232	1731
61.24	1730
61.248	1729
61.256	1729
61.264	1729
61.272	1729
61.28	1732
61.288	1739.00000000001
61.296	1746
61.304	1749
61.312	1751
61.32	1752
61.328	1752
61.336	1752
61.344	1752
61.352	1752
61.36	1752
61.368	1752
61.376	1752
61.384	1752
61.392	1752
61.4	1752
61.408	1752
61.416	1752
61.424	1752
61.432	1752
61.44	1752
61.448	1752
61.456	1752
61.464	1752
61.472	1755
61.48	1764.00000000001
61.488	1778
61.496	1804
61.504	1843
61.512	1895
61.52	1962
61.528	2036
61.536	2112
61.544	2192.00000000007
61.552	2270
61.56	2344
61.568	2413
61.576	2471
61.584	2513
61.592	2540
61.6	2553
61.608	2554
61.616	2544
61.624	2526
61.632	2504
61.64	2474
61.648	2437
61.656	2396
61.664	2346
61.672	2291.99999999995
61.68	2236
61.688	2183
61.696	2138
61.704	2099
61.712	2067
61.72	2038
61.728	2014
61.736	1991.99999999998
61.744	1971
61.752	1955
61.76	1941
61.768	1928
61.776	1914
61.784	1903
61.792	1895
61.8	1884.99999999999
61.808	1874
61.816	1858
61.824	1840
61.832	1825
61.84	1812
61.848	1799
61.856	1786
61.864	1771.99999999999
61.872	1762
61.88	1757
61.888	1755
61.896	1751
61.904	1746
61.912	1740
61.92	1731
61.928	1720.99999999999
61.936	1713
61.944	1706
61.952	1702
61.96	1703
61.968	1707
61.976	1715
61.984	1725
61.992	1733
62	1737
62.008	1736
62.016	1732
62.024	1727
62.032	1722
62.04	1716
62.048	1710
62.056	1707
62.064	1706
62.072	1708
62.08	1712
62.088	1717
62.096	1726.00000000001
62.104	1733
62.112	1740
62.12	1746
62.128	1749
62.136	1751
62.144	1752
62.152	1752
62.16	1752
62.168	1752
62.176	1752
62.184	1752
62.192	1752
62.2	1752
62.208	1752
62.216	1752
62.224	1752
62.232	1752
62.24	1752
62.248	1752
62.256	1752
62.264	1755
62.272	1764
62.28	1778
62.288	1804.00000000003
62.296	1843
62.304	1895
62.312	1959.00000000006
62.32	2032
62.328	2113
62.336	2199
62.344	2287
62.352	2376.00000000008
62.36	2458
62.368	2531
62.376	2597.00000000005
62.384	2652
62.392	2695
62.4	2727
62.408	2749
62.416	2760
62.424	2756
62.432	2741
62.44	2713.99999999997
62.448	2675
62.456	2628
62.464	2575
62.472	2523
62.48	2470.99999999996
62.488	2423
62.496	2380
62.504	2338
62.512	2298
62.52	2262
62.528	2231
62.536	2207
62.544	2184.99999999998
62.552	2167
62.56	2158
62.568	2153
62.576	2148
62.584	2142
62.592	2139
62.6	2138
62.608	2137
62.616	2137
62.624	2098
62.632	2039
62.64	2008
62.648	1990
62.656	1981
62.664	1974
62.672	1964.99999999999
62.68	1957
62.688	1946
62.696	1933
62.704	1923
62.712	1914
62.72	1907
62.728	1904
62.736	1902
62.744	1898
62.752	1893
62.76	1891
62.768	1888
62.776	1884
62.784	1880
62.792	1876
62.8	1874
62.808	1873
62.816	1873
62.824	1873
62.832	1873
62.84	1873
62.848	1873
62.856	1873
62.864	1873
62.872	1873
62.88	1873
62.888	1873
62.896	1873
62.904	1873
62.912	1873
62.92	1871
62.928	1868
62.936	1866
62.944	1862
62.952	1857
62.96	1855
62.968	1854
62.976	1853
62.984	1853
62.992	1851
63	1848
63.008	1844
63.016	1840
63.024	1836
63.032	1832
63.04	1830
63.048	1826
63.056	1821
63.064	1819
63.072	1818
63.08	1820
63.088	1826
63.096	1835.00000000001
63.104	1851
63.112	1877
63.12	1913.00000000003
63.128	1952
63.136	1993
63.144	2041
63.152	2095
63.16	2151.00000000005
63.168	2204
63.176	2251
63.184	2290.00000000003
63.192	2322
63.2	2347
63.208	2362
63.216	2367
63.224	2364
63.232	2351
63.24	2331
63.248	2304.99999999997
63.256	2274
63.264	2240
63.272	2203
63.28	2165
63.288	2127.99999999997
63.296	2091
63.304	2055
63.312	2020.99999999997
63.32	1990
63.328	1960
63.336	1934
63.344	1910
63.352	1888.99999999998
63.36	1874
63.368	1861
63.376	1850.99999999999
63.384	1842
63.392	1830
63.4	1817
63.408	1807
63.416	1796.99999999999
63.424	1787
63.432	1780
63.44	1776
63.448	1774
63.456	1773
63.464	1771
63.472	1766
63.48	1755.99999999999
63.488	1744
63.496	1731
63.504	1720
63.512	1714
63.52	1711
63.528	1710
63.536	1709
63.544	1707
63.552	1704
63.56	1700
63.568	1694
63.576	1686
63.584	1677
63.592	1669
63.6	1663
63.608	1660
63.616	1656
63.624	1652
63.632	1647
63.64	1642
63.648	1637
63.656	1633
63.664	1629
63.672	1623
63.68	1618
63.688	1612
63.696	1602
63.704	1591
63.712	1584
63.72	1577
63.728	1571
63.736	1568
63.744	1566
63.752	1565
63.76	1565
63.768	1563
63.776	1560
63.784	1556
63.792	1552
63.8	1552
63.808	1554
63.816	1557
63.824	1561
63.832	1563
63.84	1564
63.848	1564
63.856	1564
63.864	1567
63.872	1572
63.88	1576
63.888	1582
63.896	1589
63.904	1598
63.912	1607
63.92	1618
63.928	1634.00000000002
63.936	1658
63.944	1688
63.952	1721
63.96	1758
63.968	1801
63.976	1848
63.984	1893
63.992	1934.00000000003
64	1968
64.008	1997
64.016	2021
64.024	2037
64.032	2043
64.04	2042
64.048	2032
64.056	2015
64.064	1997.99999999997
64.072	1978
64.08	1954
64.088	1927.99999999995
64.096	1902
64.104	1876
64.112	1849
64.12	1822
64.128	1797
64.136	1779
64.144	1763
64.152	1748
64.16	1733
64.168	1721
64.176	1713
64.184	1707
64.192	1704
64.2	1704
64.208	1706
64.216	1707
64.224	1708
64.232	1708
64.24	1708
64.248	1708
64.256	1708
64.264	1708
64.272	1708
64.28	1708
64.288	1708
64.296	1708
64.304	1708
64.312	1708
64.32	1708
64.328	1708
64.336	1708
64.344	1708
64.352	1708
64.36	1708
64.368	1708
64.376	1708
64.384	1708
64.392	1708
64.4	1708
64.408	1708
64.416	1708
64.424	1708
64.432	1708
64.44	1706
64.448	1703
64.456	1702
64.464	1701
64.472	1701
64.48	1703
64.488	1706
64.496	1707
64.504	1708
64.512	1706
64.52	1703
64.528	1702
64.536	1701
64.544	1701
64.552	1699
64.56	1696
64.568	1694
64.576	1693
64.584	1693
64.592	1695
64.6	1698
64.608	1701
64.616	1705
64.624	1707
64.632	1708
64.64	1708
64.648	1708
64.656	1708
64.664	1706
64.672	1753
64.68	1784
64.688	1800
64.696	1813
64.704	1819.00000000001
64.712	1825
64.72	1839
64.728	1854
64.736	1876
64.744	1906
64.752	1943
64.76	1987
64.768	2032
64.776	2075
64.784	2133
64.792	2165
64.8	2193
64.808	2231
64.816	2239
64.824	2240
64.832	2231.99999999998
64.84	2219
64.848	2200
64.856	2174
64.864	2144
64.872	2114
64.88	2087
64.888	2062
64.896	2036
64.904	2012
64.912	1992
64.92	1976
64.928	1962
64.936	1949
64.944	1939
64.952	1930
64.96	1919.99999999998
64.968	1912
64.976	1906
64.984	1901
64.992	1897
65	1893
65.008	1891
65.016	1890
65.024	1889
65.032	1887
65.04	1884
65.048	1880
65.056	1874
65.064	1866.99999999999
65.072	1860
65.08	1852
65.088	1845.99999999999
65.096	1841
65.104	1835
65.112	1828
65.12	1822
65.128	1819
65.136	1818
65.144	1817
65.152	1817
65.16	1817
65.168	1817
65.176	1817
65.184	1817
65.192	1817
65.2	1817
65.208	1817
65.216	1817
65.224	1817
65.232	1817
65.24	1817
65.248	1817
65.256	1817
65.264	1817
65.272	1817
65.28	1817
65.288	1817
65.296	1817
65.304	1817
65.312	1817
65.32	1817
65.328	1817
65.336	1817
65.344	1817
65.352	1817
65.36	1817
65.368	1817
65.376	1817
65.384	1817
65.392	1817
65.4	1817
65.408	1817
65.416	1817
65.424	1817
65.432	1817
65.44	1817
65.448	1817
65.456	1817
65.464	1817
65.472	1817
65.48	1817
65.488	1819
65.496	1824
65.504	1832
65.512	1844
65.52	1862
65.528	1890
65.536	1925
65.544	1968
65.552	2016
65.56	2063
65.568	2110
65.576	2156.00000000008
65.584	2196
65.592	2228
65.6	2254
65.608	2274
65.616	2287
65.624	2294
65.632	2292
65.64	2284
65.648	2274
65.656	2261
65.664	2245
65.672	2222
65.68	2195
65.688	2166
65.696	2132
65.704	2099.99999999995
65.712	2072
65.72	2048
65.728	2027
65.736	2010
65.744	1995
65.752	1982
65.76	1973
65.768	1967
65.776	1962
65.784	1957
65.792	1953
65.8	1951
65.808	1948
65.816	1944
65.824	1940
65.832	1935.99999999999
65.84	1932
65.848	1926
65.856	1921
65.864	1916
65.872	1910
65.88	1905
65.888	1901
65.896	1897
65.904	1891
65.912	1884
65.92	1876
65.928	1868
65.936	1860
65.944	1852
65.952	1844
65.96	1835.99999999999
65.968	1828
65.976	1822
65.984	1819
65.992	1818
66	1817
66.008	1817
66.016	1817
66.024	1815
66.032	1812
66.04	1808
66.048	1801
66.056	1795
66.064	1792
66.072	1790
66.08	1789
66.088	1789
66.096	1789
66.104	1789
66.112	1789
66.12	1787
66.128	1782
66.136	1777
66.144	1773
66.152	1769
66.16	1765
66.168	1763
66.176	1764
66.184	1766
66.192	1771.00000000001
66.2	1776
66.208	1780
66.216	1784.00000000001
66.224	1789
66.232	1795
66.24	1798
66.248	1796
66.256	1792
66.264	1790
66.272	1792
66.28	1798
66.288	1805
66.296	1815
66.304	1830
66.312	1849
66.32	1874.00000000005
66.328	1905
66.336	1939
66.344	1977.00000000007
66.352	2019
66.36	2063
66.368	2110
66.376	2158
66.384	2207
66.392	2255
66.4	2296
66.408	2326
66.416	2349
66.424	2365
66.432	2373
66.44	2373
66.448	2362.99999999998
66.456	2348
66.464	2330
66.472	2305.99999999995
66.48	2277
66.488	2246
66.496	2215
66.504	2186
66.512	2155
66.52	2125
66.528	2099
66.536	2078
66.544	2061
66.552	2049
66.56	2041
66.568	2037
66.576	2035
66.584	2032
66.592	2026
66.6	2021
66.608	2016
66.616	2008
66.624	2002
66.632	1999
66.64	2000
66.648	2002
66.656	2003
66.664	2004
66.672	2004
66.68	2002
66.688	1988
66.696	1970
66.704	1957.99999999998
66.712	1949
66.72	1945
66.728	1943
66.736	1942
66.744	1941
66.752	1938
66.76	1933
66.768	1929
66.776	1925
66.784	1920
66.792	1912
66.8	1906
66.808	1900
66.816	1894
66.824	1891
66.832	1890
66.84	1889
66.848	1892
66.856	1896
66.864	1898
66.872	1899
66.88	1897
66.888	1891
66.896	1883
66.904	1873
66.912	1863
66.92	1856
66.928	1854
66.936	1858
66.944	1866
66.952	1875
66.96	1885.00000000002
66.968	1895
66.976	1900
66.984	1900
66.992	1897
67	1893
67.008	1889
67.016	1885
67.024	1885
67.032	1887
67.04	1891
67.048	1896
67.056	1900
67.064	1904
67.072	1906
67.08	1907
67.088	1911.00000000001
67.096	1918
67.104	1931
67.112	1954
67.12	1983
67.128	2018
67.136	2058
67.144	2106
67.152	2163
67.16	2231
67.168	2301
67.176	2369
67.184	2436
67.192	2500.00000000011
67.2	2558
67.208	2605
67.216	2642.00000000005
67.224	2665
67.232	2677
67.24	2680
67.248	2676
67.256	2667
67.264	2650
67.272	2625
67.28	2595
67.288	2557
67.296	2512
67.304	2464
67.312	2415
67.32	2367.99999999992
67.328	2323
67.336	2283
67.344	2250.99999999995
67.352	2224
67.36	2199
67.368	2177
67.376	2156
67.384	2137
67.392	2120
67.4	2104
67.408	2089
67.416	2074
67.424	2063
67.432	2058
67.44	2055
67.448	2051.99999999999
67.456	2048
67.464	2046
67.472	2041.99999999999
67.48	2034
67.488	2025
67.496	2016
67.504	2003
67.512	1990
67.52	1976
67.528	1961
67.536	1948
67.544	1936
67.552	1925
67.56	1915
67.568	1905
67.576	1894.99999999998
67.584	1882
67.592	1867
67.6	1853
67.608	1838
67.616	1822
67.624	1807
67.632	1795
67.64	1783
67.648	1772
67.656	1759
67.664	1748
67.672	1742
67.68	1736
67.688	1730
67.696	1727
67.704	1726
67.712	1723
67.72	1720
67.728	1718
67.736	1717
67.744	1714
67.752	1709
67.76	1710
67.768	1713
67.776	1715
67.784	1718
67.792	1721
67.8	1723
67.808	1724
67.816	1727
67.824	1732
67.832	1734
67.84	1735
67.848	1736
67.856	1736
67.864	1736
67.872	1736
67.88	1736
67.888	1736
67.896	1736
67.904	1736
67.912	1736
67.92	1736
67.928	1736
67.936	1738
67.944	1746
67.952	1763
67.96	1790.00000000005
67.968	1826
67.976	1870
67.984	1920
67.992	1973
68	2026
68.008	2075
68.016	2118
68.024	2155
68.032	2187
68.04	2210
68.048	2223
68.056	2228
68.064	2224.99999999999
68.072	2216
68.08	2198
68.088	2173.99999999995
68.096	2147
68.104	2116
68.112	2082
68.12	2049
68.128	2018
68.136	1987
68.144	1956
68.152	1927
68.16	1903
68.168	1881
68.176	1862
68.184	1847
68.192	1837.99999999999
68.2	1833
68.208	1828
68.216	1821.99999999999
68.224	1819
68.232	1818
68.24	1815
68.248	1809
68.256	1801
68.264	1795
68.272	1789
68.28	1783
68.288	1777
68.296	1771
68.304	1768
68.312	1764
68.32	1759.99999999999
68.328	1755
68.336	1748
68.344	1738.99999999999
68.352	1732
68.36	1728
68.368	1726
68.376	1723
68.384	1720
68.392	1718
68.4	1717
68.408	1717
68.416	1717
68.424	1717
68.432	1717
68.44	1717
68.448	1713.99999999999
68.456	1709
68.464	1707
68.472	1706
68.48	1705
68.488	1703
68.496	1700
68.504	1698
68.512	1699
68.52	1702
68.528	1703
68.536	1704
68.544	1704
68.552	1704
68.56	1704
68.568	1704
68.576	1704
68.584	1704
68.592	1704
68.6	1704
68.608	1704
68.616	1704
68.624	1704
68.632	1704
68.64	1704
68.648	1704
68.656	1707
68.664	1714
68.672	1719
68.68	1725
68.688	1731
68.696	1734
68.704	1735
68.712	1736
68.72	1736
68.728	1736
68.736	1726
68.744	1713
68.752	1713
68.76	1723
68.768	1742
68.776	1768
68.784	1802
68.792	1843
68.8	1888
68.808	1934
68.816	1979
68.824	2020
68.832	2054.00000000005
68.84	2081
68.848	2101
68.856	2113
68.864	2119
68.872	2120
68.88	2114
68.888	2103
68.896	2090
68.904	2073
68.912	2051
68.92	2024
68.928	1994
68.936	1965
68.944	1939
68.952	1914
68.96	1890.99999999996
68.968	1872
68.976	1854
68.984	1839
68.992	1828
69	1818
69.008	1809
69.016	1802
69.024	1795
69.032	1790
69.04	1787
69.048	1786
69.056	1785
69.064	1785
69.072	1783
69.08	1780
69.088	1775.99999999999
69.096	1770
69.104	1765
69.112	1763
69.12	1760
69.128	1756
69.136	1754
69.144	1753
69.152	1751
69.16	1748
69.168	1744
69.176	1740
69.184	1736
69.192	1731.99999999999
69.2	1728
69.208	1722
69.216	1714.99999999999
69.224	1708
69.232	1702
69.24	1699
69.248	1698
69.256	1697
69.264	1697
69.272	1697
69.28	1695
69.288	1690
69.296	1685
69.304	1683
69.312	1682
69.32	1681
69.328	1683
69.336	1686
69.344	1689.00000000001
69.352	1693
69.36	1695
69.368	1696
69.376	1696
69.384	1696
69.392	1694
69.4	1691
69.408	1690
69.416	1689
69.424	1689
69.432	1691
69.44	1694
69.448	1695
69.456	1696
69.464	1696
69.472	1696
69.48	1696
69.488	1696
69.496	1696
69.504	1696
69.512	1696
69.52	1698
69.528	1701
69.536	1705
69.544	1711
69.552	1718
69.56	1729
69.568	1747
69.576	1769.00000000004
69.584	1797
69.592	1833
69.6	1875.00000000008
69.608	1920
69.616	1966
69.624	2013
69.632	2057
69.64	2095
69.648	2126
69.656	2148
69.664	2162
69.672	2169
69.68	2172
69.688	2170
69.696	2163
69.704	2149.99999999997
69.712	2133
69.72	2115
69.728	2092
69.736	2064
69.744	2036
69.752	2008
69.76	1980
69.768	1956
69.776	1936
69.784	1918
69.792	1903
69.8	1892
69.808	1882
69.816	1873
69.824	1865
69.832	1858.99999999999
69.84	1854
69.848	1847
69.856	1842
69.864	1839
69.872	1836
69.88	1832
69.888	1828
69.896	1824
69.904	1820
69.912	1816
69.92	1812
69.928	1808
69.936	1804
69.944	1800
69.952	1797
69.96	1792.99999999999
69.968	1787
69.976	1780
69.984	1772
69.992	1766
70	1761
70.008	1755
70.016	1750
70.024	1745
70.032	1739
70.04	1732
70.048	1724
70.056	1716
70.064	1707.99999999999
70.072	1702
70.08	1699
70.088	1698
70.096	1697
70.104	1697
70.112	1697
70.12	1697
70.128	1697
70.136	1695
70.144	1694
70.152	1695
70.16	1696
70.168	1696
70.176	1696
70.184	1696
70.192	1696
70.2	1696
70.208	1696
70.216	1696
70.224	1696
70.232	1696
70.24	1696
70.248	1696
70.256	1696
70.264	1696
70.272	1694
70.28	1691
70.288	1690
70.296	1687
70.304	1684
70.312	1682
70.32	1683
70.328	1686
70.336	1689
70.344	1693.00000000001
70.352	1697
70.36	1703
70.368	1712
70.376	1724
70.384	1742
70.392	1766
70.4	1795
70.408	1832
70.416	1874
70.424	1919
70.432	1964
70.44	2006
70.448	2045.00000000006
70.456	2079
70.464	2106
70.472	2125.00000000003
70.48	2137
70.488	2141
70.496	2137
70.504	2127
70.512	2112
70.52	2092
70.528	2070
70.536	2047
70.544	2022
70.552	1995
70.56	1970
70.568	1945
70.576	1922.99999999996
70.584	1904
70.592	1888
70.6	1873.99999999998
70.608	1861
70.616	1851
70.624	1842
70.632	1835
70.64	1830
70.648	1823
70.656	1818
70.664	1815
70.672	1812
70.68	1808
70.688	1804
70.696	1800
70.704	1798
70.712	1796
70.72	1794
70.728	1791
70.736	1788
70.744	1786
70.752	1783
70.76	1780
70.768	1776
70.776	1770
70.784	1768
70.792	1767
70.8	1761
70.808	1755
70.816	1749
70.824	1743
70.832	1740
70.84	1738
70.848	1737
70.856	1737
70.864	1734
70.872	1729
70.88	1724
70.888	1718
70.896	1715
70.904	1711
70.912	1703
70.92	1696
70.928	1692
70.936	1690
70.944	1689
70.952	1689
70.96	1689
70.968	1689
70.976	1689
70.984	1689
70.992	1689
71	1689
71.008	1689
71.016	1689
71.024	1689
71.032	1689
71.04	1689
71.048	1692
71.056	1696
71.064	1701.00000000001
71.072	1707
71.08	1713
71.088	1719.00000000001
71.096	1725
71.104	1731
71.112	1734
71.12	1735
71.128	1739
71.136	1744
71.144	1746
71.152	1750
71.16	1761
71.168	1783
71.176	1816
71.184	1859
71.192	1917.00000000011
71.2	1986
71.208	2060
71.216	2139.00000000015
71.224	2225
71.232	2314
71.24	2394
71.248	2464
71.256	2524
71.264	2570
71.272	2605
71.28	2629
71.288	2638
71.296	2633
71.304	2619
71.312	2596
71.32	2564.99999999994
71.328	2532
71.336	2497
71.344	2464.99999999995
71.352	2437
71.36	2408
71.368	2374
71.376	2335
71.384	2295
71.392	2257
71.4	2220
71.408	2186
71.416	2157
71.424	2134
71.432	2113
71.44	2093
71.448	2078.99999999998
71.456	2072
71.464	2068
71.472	2066
71.48	2065
71.488	2065
71.496	2065
71.504	2065
71.512	2065
71.52	2065
71.528	2065
71.536	2065
71.544	2062
71.552	2057
71.56	2052
71.568	2043
71.576	2032.99999999998
71.584	2022
71.592	2013
71.6	2005.99999999999
71.608	1999
71.616	1996
71.624	1991
71.632	1986
71.64	1980
71.648	1974
71.656	1968
71.664	1959
71.672	1949
71.68	1938
71.688	1926
71.696	1917
71.704	1913
71.712	1911
71.72	1907
71.728	1902
71.736	1896
71.744	1887
71.752	1877
71.76	1866
71.768	1851
71.776	1834
71.784	1818
71.792	1804
71.8	1788
71.808	1771
71.816	1754
71.824	1736
71.832	1717.99999999997
71.84	1703
71.848	1696
71.856	1692
71.864	1690
71.872	1689
71.88	1689
71.888	1689
71.896	1689
71.904	1686
71.912	1678
71.92	1668
71.928	1660
71.936	1656
71.944	1654
71.952	1656
71.96	1663.00000000001
71.968	1673
71.976	1684
71.984	1695
71.992	1710
72	1732
72.008	1765
72.016	1807
72.024	1858
72.032	1916
72.04	1975
72.048	2036
72.056	2094
72.064	2147.00000000009
72.072	2195
72.08	2234
72.088	2262.00000000004
72.096	2279
72.104	2285
72.112	2282
72.12	2271
72.128	2251
72.136	2223
72.144	2191
72.152	2154
72.16	2113
72.168	2074
72.176	2033
72.184	1992
72.192	1952.99999999994
72.2	1919
72.208	1890
72.216	1862.99999999995
72.224	1837
72.232	1811
72.24	1789
72.248	1769
72.256	1750
72.264	1734
72.272	1720
72.28	1707
72.288	1698
72.296	1693
72.304	1691
72.312	1690
72.32	1689
72.328	1689
72.336	1689
72.344	1689
72.352	1689
72.36	1689
72.368	1689
72.376	1689
72.384	1689
72.392	1689
72.4	1689
72.408	1689
72.416	1689
72.424	1686
72.432	1681
72.44	1679
72.448	1674.99999999999
72.456	1670
72.464	1667
72.472	1666
72.48	1665
72.488	1665
72.496	1665
72.504	1665
72.512	1665
72.52	1668
72.528	1672
72.536	1674
72.544	1675
72.552	1676
72.56	1676
72.568	1676
72.576	1676
72.584	1676
72.592	1676
72.6	1676
72.608	1679
72.616	1684
72.624	1686
