Time	PPG1
0	1755
0.008	1748
0.016	1740
0.024	1732
0.032	1724
0.04	1718
0.048	1715
0.056	1714
0.064	1713
0.072	1713
0.08	1713
0.088	1713
0.096	1713
0.104	1713
0.112	1713
0.12	1713
0.128	1713
0.136	1711
0.144	1708
0.152	1708
0.16	1704
0.168	1699
0.176	1700
0.184	1703
0.192	1708
0.2	1713
0.208	1719
0.216	1722
0.224	1720
0.232	1713
0.24	1707
0.248	1704
0.256	1702
0.264	1707
0.272	1719
0.28	1734
0.288	1753
0.296	1775
0.304	1801
0.312	1832
0.32	1889
0.328	1935
0.336	1990
0.344	2110
0.352	2177
0.36	2250
0.368	2367
0.376	2439
0.384	2505
0.392	2568
0.4	2623
0.408	2669
0.416	2704
0.424	2727
0.432	2739
0.44	2734
0.448	2720
0.456	2682
0.464	2650
0.472	2616
0.48	2581
0.488	2549
0.496	2518
0.504	2484
0.512	2452
0.52	2411
0.528	2385
0.536	2361
0.544	2328
0.552	2311
0.56	2297
0.568	2284
0.576	2274
0.584	2269
0.592	2264
0.6	2255
0.608	2245
0.616	2234
0.624	2222
0.632	2210
0.64	2195
0.648	2179
0.656	2162
0.664	2144
0.672	2129
0.68	2116
0.688	2106
0.696	2098
0.704	2091
0.712	2085
0.72	2076
0.728	2065
0.736	2054
0.744	2045
0.752	2038
0.76	2031
0.768	2031
0.776	2034
0.784	2035
0.792	2039
0.8	2044
0.808	2046
0.816	2047
0.824	2048
0.832	2045
0.84	2041
0.848	2036
0.856	2027
0.864	2020
0.872	2013
0.88	2007
0.888	2004
0.896	2002
0.904	2001
0.912	2001
0.92	1998
0.928	1993
0.936	1988
0.944	1979
0.952	1972
0.96	1965
0.968	1959
0.976	1956
0.984	1954
0.992	1953
1	1953
1.008	1950
1.016	1945
1.024	1940
1.032	1931
1.04	1921
1.048	1910
1.056	1898
1.064	1889
1.072	1882
1.08	1875
1.088	1872
1.096	1870
1.104	1872
1.112	1879
1.12	1892
1.128	1913
1.136	1942
1.144	1977
1.152	2019
1.16	2061
1.168	2103
1.176	2148
1.184	2194
1.192	2241
1.2	2289
1.208	2334
1.216	2371
1.224	2399
1.232	2416
1.24	2424
1.248	2425
1.256	2417
1.264	2401
1.272	2381
1.28	2356
1.288	2325
1.296	2289
1.304	2250
1.312	2209
1.32	2165
1.328	2122
1.336	2082
1.344	2047
1.352	2021
1.36	1999
1.368	1979
1.376	1960
1.384	1941
1.392	1926
1.4	1912
1.408	1899
1.416	1887
1.424	1875
1.432	1863
1.44	1851
1.448	1836
1.456	1819
1.464	1805
1.472	1789
1.48	1772
1.488	1757
1.496	1744
1.504	1731
1.512	1716
1.52	1699
1.528	1685
1.536	1672
1.544	1659
1.552	1650
1.56	1642
1.568	1635
1.576	1632
1.584	1627
1.592	1622
1.6	1619
1.608	1615
1.616	1610
1.624	1607
1.632	1606
1.64	1602
1.648	1597
1.656	1592
1.664	1586
1.672	1583
1.68	1579
1.688	1574
1.696	1571
1.704	1570
1.712	1569
1.72	1569
1.728	1569
1.736	1569
1.744	1569
1.752	1569
1.76	1569
1.768	1572
1.776	1576
1.784	1578
1.792	1579
1.8	1580
1.808	1583
1.816	1588
1.824	1590
1.832	1591
1.84	1592
1.848	1592
1.856	1592
1.864	1595
1.872	1600
1.88	1605
1.888	1614
1.896	1624
1.904	1632
1.912	1639
1.92	1646
1.928	1649
1.936	1654
1.944	1662
1.952	1672
1.96	1686
1.968	1702
1.976	1722
1.984	1750
1.992	1782
2	1819
2.008	1859
2.016	1900
2.024	1944
2.032	1990
2.04	2031
2.048	2064
2.056	2089
2.064	2108
2.072	2120
2.08	2126
2.088	2126
2.096	2120
2.104	2108
2.112	2090
2.12	2072
2.128	2054
2.136	2033
2.144	2008
2.152	1980
2.16	1957
2.168	1937
2.176	1913
2.184	1891
2.192	1876
2.2	1866
2.208	1859
2.216	1852
2.224	1846
2.232	1842
2.24	1839
2.248	1836
2.256	1832
2.264	1828
2.272	1824
2.28	1820
2.288	1814
2.296	1807
2.304	1800
2.312	1794
2.32	1789
2.328	1785
2.336	1783
2.344	1780
2.352	1776
2.36	1772
2.368	1766
2.376	1759
2.384	1752
2.392	1746
2.4	1743
2.408	1742
2.416	1741
2.424	1741
2.432	1741
2.44	1741
2.448	1741
2.456	1741
2.464	1741
2.472	1741
2.48	1741
2.488	1741
2.496	1741
2.504	1741
2.512	1741
2.52	1741
2.528	1741
2.536	1741
2.544	1741
2.552	1741
2.56	1741
2.568	1741
2.576	1741
2.584	1741
2.592	1741
2.6	1741
2.608	1741
2.616	1741
2.624	1741
2.632	1741
2.64	1741
2.648	1741
2.656	1741
2.664	1741
2.672	1741
2.68	1741
2.688	1741
2.696	1741
2.704	1741
2.712	1741
2.72	1741
2.728	1741
2.736	1743
2.744	1746
2.752	1747
2.76	1748
2.768	1750
2.776	1755
2.784	1762
2.792	1771
2.8	1788
2.808	1809
2.816	1835
2.824	1868
2.832	1904
2.84	1939
2.848	1972
2.856	2004
2.864	2034
2.872	2060
2.88	2084
2.888	2106
2.896	2125
2.904	2141
2.912	2153
2.92	2161
2.928	2163
2.936	2158
2.944	2147
2.952	2134
2.96	2118
2.968	2099
2.976	2080
2.984	2060
2.992	2040
3	2020
3.008	2002
3.016	1989
3.024	1978
3.032	1967
3.04	1958
3.048	1949
3.056	1941
3.064	1935
3.072	1930
3.08	1925
3.088	1923
3.096	1920
3.104	1916
3.112	1914
3.12	1911
3.128	1908
3.136	1904
3.144	1900
3.152	1896
3.16	1890
3.168	1885
3.176	1881
3.184	1875
3.192	1868
3.2	1860
3.208	1852
3.216	1845
3.224	1839
3.232	1832
3.24	1824
3.248	1818
3.256	1813
3.264	1807
3.272	1802
3.28	1797
3.288	1791
3.296	1784
3.304	1776
3.312	1768
3.32	1760
3.328	1752
3.336	1746
3.344	1743
3.352	1742
3.36	1741
3.368	1741
3.376	1741
3.384	1741
3.392	1741
3.4	1741
3.408	1741
3.416	1741
3.424	1741
3.432	1741
3.44	1741
3.448	1741
3.456	1741
3.464	1741
3.472	1741
3.48	1741
3.488	1741
3.496	1741
3.504	1741
3.512	1741
3.52	1741
3.528	1741
3.536	1741
3.544	1741
3.552	1741
3.56	1741
3.568	1741
3.576	1741
3.584	1741
3.592	1741
3.6	1743
3.608	1748
3.616	1756
3.624	1770
3.632	1791
3.64	1817
3.648	1849
3.656	1889
3.664	1932
3.672	1974
3.68	2015
3.688	2053
3.696	2087
3.704	2118
3.712	2143
3.72	2164
3.728	2182
3.736	2197
3.744	2208
3.752	2214
3.76	2217
3.768	2218
3.776	2213
3.784	2203
3.792	2188
3.8	2168
3.808	2146
3.816	2124
3.824	2104
3.832	2086
3.84	2069
3.848	2053
3.856	2037
3.864	2021
3.872	2005
3.88	1991
3.888	1980
3.896	1971
3.904	1964
3.912	1956
3.92	1948
3.928	1940
3.936	1934
3.944	1929
3.952	1925
3.96	1921
3.968	1915
3.976	1908
3.984	1898
3.992	1887
4	1876
4.008	1864
4.016	1854
4.024	1844
4.032	1834
4.04	1825
4.048	1817
4.056	1809
4.064	1801
4.072	1793
4.08	1783
4.088	1772
4.096	1760
4.104	1750
4.112	1744
4.12	1740
4.128	1736
4.136	1732
4.144	1730
4.152	1731
4.16	1734
4.168	1736
4.176	1738
4.184	1739
4.192	1740
4.2	1740
4.208	1740
4.216	1740
4.224	1727
4.232	1708
4.24	1698
4.248	1693
4.256	1691
4.264	1690
4.272	1689
4.28	1689
4.288	1689
4.296	1689
4.304	1689
4.312	1689
4.32	1689
4.328	1689
4.336	1689
4.344	1689
4.352	1689
4.36	1689
4.368	1689
4.376	1689
4.384	1689
4.392	1689
4.4	1692
4.408	1699
4.416	1709
4.424	1720
4.432	1734
4.44	1753
4.448	1778
4.456	1814
4.464	1865
4.472	1927
4.48	1997
4.488	2071
4.496	2147
4.504	2224.00000000001
4.512	2298.00000000001
4.52	2368.00000000001
4.528	2430.00000000001
4.536	2485.00000000001
4.544	2534.00000000001
4.552	2576
4.56	2612
4.568	2639
4.576	2656
4.584	2664
4.592	2665
4.6	2657
4.608	2638
4.616	2613
4.624	2583
4.632	2547
4.64	2508
4.648	2467
4.656	2432
4.664	2402
4.672	2375
4.68	2353
4.688	2339
4.696	2329
4.704	2318
4.712	2306
4.72	2294
4.728	2282
4.736	2270
4.744	2258
4.752	2246
4.76	2234
4.768	2222
4.776	2210
4.784	2198
4.792	2183
4.8	2164
4.808	2145
4.816	2127
4.824	2106
4.832	2086
4.84	2073
4.848	2064
4.856	2056
4.864	2052
4.872	2050
4.88	2049
4.888	2049
4.896	2046
4.904	2041
4.912	2039
4.92	2035
4.928	2030
4.936	2024
4.944	2015
4.952	2005
4.96	1997
4.968	1993
4.976	1991
4.984	1993
4.992	2000
5	2009
5.008	2017
5.016	2021
5.024	2023
5.032	2024
5.04	2024
5.048	2024
5.056	2024
5.064	2024
5.072	2024
5.08	2024
5.088	2024
5.096	2024
5.104	2021
5.112	2017
5.12	2012
5.128	2006
5.136	2003
5.144	2002
5.152	2001
5.16	1998
5.168	1993
5.176	1991
5.184	1987
5.192	1979
5.2	1972
5.208	1965
5.216	1959
5.224	1956
5.232	1954
5.24	1953
5.248	1956
5.256	1963
5.264	1973
5.272	1987
5.28	2009
5.288	2038
5.296	2073
5.304	2118
5.312	2170
5.32	2226
5.328	2284
5.336	2343
5.344	2397
5.352	2442
5.36	2482
5.368	2520
5.376	2554
5.384	2580
5.392	2599
5.4	2609
5.408	2608
5.416	2595
5.424	2571
5.432	2541
5.44	2505
5.448	2463
5.456	2418
5.464	2374
5.472	2331
5.48	2286
5.488	2242
5.496	2199
5.504	2157
5.512	2118
5.52	2083
5.528	2054
5.536	2030
5.544	2009
5.552	1990
5.56	1974
5.568	1960
5.576	1947
5.584	1935
5.592	1923
5.6	1911
5.608	1896
5.616	1879
5.624	1865
5.632	1849
5.64	1832
5.648	1817
5.656	1801
5.664	1784
5.672	1766
5.68	1745
5.688	1726
5.696	1710
5.704	1699
5.712	1691
5.72	1684
5.728	1677
5.736	1668
5.744	1660
5.752	1653
5.76	1644
5.768	1633
5.776	1622
5.784	1613
5.792	1606
5.8	1596
5.808	1588
5.816	1581
5.824	1569
5.832	1554
5.84	1540
5.848	1527
5.856	1515
5.864	1503
5.872	1491
5.88	1479
5.888	1470
5.896	1465
5.904	1463
5.912	1462
5.92	1461
5.928	1461
5.936	1458
5.944	1453
5.952	1451
5.96	1450
5.968	1452
5.976	1456
5.984	1458
5.992	1459
6	1460
6.008	1457
6.016	1453
6.024	1448
6.032	1442
6.04	1439
6.048	1441
6.056	1448
6.064	1457
6.072	1468
6.08	1479
6.088	1491
6.096	1503
6.104	1515
6.112	1530
6.12	1546
6.128	1566
6.136	1594
6.144	1626
6.152	1663
6.16	1703
6.168	1744
6.176	1785
6.184	1827
6.192	1869
6.2	1908
6.208	1945
6.216	1979
6.224	2008
6.232	2031
6.24	2046
6.248	2053
6.256	2057
6.264	2056
6.272	2047
6.28	2034
6.288	2020
6.296	2006
6.304	1991
6.312	1977
6.32	1965
6.328	1955
6.336	1946
6.344	1937
6.352	1929
6.36	1921
6.368	1914
6.376	1907
6.384	1900
6.392	1892
6.4	1886
6.408	1881
6.416	1877
6.424	1873
6.432	1867
6.44	1862
6.448	1857
6.456	1852
6.464	1848
6.472	1844
6.48	1838
6.488	1831
6.496	1826
6.504	1823
6.512	1822
6.52	1821
6.528	1821
6.536	1821
6.544	1821
6.552	1821
6.56	1821
6.568	1821
6.576	1821
6.584	1821
6.592	1821
6.6	1821
6.608	1821
6.616	1821
6.624	1821
6.632	1821
6.64	1821
6.648	1821
6.656	1819
6.664	1816
6.672	1814
6.68	1813
6.688	1815
6.696	1818
6.704	1819
6.712	1820
6.72	1818
6.728	1815
6.736	1814
6.744	1812
6.752	1811
6.76	1812
6.768	1812
6.776	1812
6.784	1814
6.792	1817
6.8	1819
6.808	1820
6.816	1820
6.824	1820
6.832	1820
6.84	1820
6.848	1820
6.856	1820
6.864	1820
6.872	1820
6.88	1820
6.888	1820
6.896	1820
6.904	1820
6.912	1820
6.92	1820
6.928	1820
6.936	1820
6.944	1822
6.952	1829
6.96	1842
6.968	1863
6.976	1891
6.984	1921
6.992	1955
7	1991
7.008	2025
7.016	2057
7.024	2086
7.032	2111
7.04	2134
7.048	2152
7.056	2166
7.064	2177
7.072	2187
7.08	2194
7.088	2195
7.096	2192
7.104	2185
7.112	2175
7.12	2162
7.128	2146
7.136	2127
7.144	2106
7.152	2086
7.16	2069
7.168	2055
7.176	2044
7.184	2034
7.192	2025
7.2	2019
7.208	2015
7.216	2010
7.224	2005
7.232	2001
7.24	1997
7.248	1993
7.256	1989
7.264	1987
7.272	1984
7.28	1980
7.288	1976
7.296	1970
7.304	1964
7.312	1958
7.32	1951
7.328	1946
7.336	1941
7.344	1937
7.352	1933
7.36	1929
7.368	1925
7.376	1919
7.384	1913
7.392	1909
7.4	1905
7.408	1899
7.416	1892
7.424	1884
7.432	1876
7.44	1868
7.448	1862
7.456	1857
7.464	1853
7.472	1850
7.48	1845
7.488	1839
7.496	1832
7.504	1826
7.512	1821
7.52	1817
7.528	1815
7.536	1816
7.544	1818
7.552	1819
7.56	1820
7.568	1820
7.576	1820
7.584	1820
7.592	1820
7.6	1820
7.608	1818
7.616	1815
7.624	1816
7.632	1818
7.64	1819
7.648	1820
7.656	1820
7.664	1820
7.672	1820
7.68	1820
7.688	1820
7.696	1820
7.704	1820
7.712	1820
7.72	1820
7.728	1820
7.736	1820
7.744	1820
7.752	1820
7.76	1822
7.768	1829
7.776	1840
7.784	1852
7.792	1870
7.8	1894
7.808	1922
7.816	1956
7.824	1994
7.832	2032
7.84	2068
7.848	2101
7.856	2132
7.864	2162
7.872	2191
7.88	2215
7.888	2234
7.896	2249
7.904	2261
7.912	2269
7.92	2271
7.928	2268
7.936	2260
7.944	2249
7.952	2235
7.96	2216
7.968	2195
7.976	2174
7.984	2153
7.992	2134
8	2115
8.008	2098
8.016	2082
8.024	2069
8.032	2061
8.04	2055
8.048	2048
8.056	2040
8.064	2034
8.072	2029
8.08	2023
8.088	2018
8.096	2014
8.104	2011
8.112	2010
8.12	2009
8.128	2009
8.136	2007
8.144	2002
8.152	1995
8.16	1988
8.168	1978
8.176	1968
8.184	1962
8.192	1957
8.2	1951
8.208	1944
8.216	1936
8.224	1928
8.232	1920
8.24	1911
8.248	1902
8.256	1893
8.264	1885
8.272	1877
8.28	1867
8.288	1857
8.296	1849
8.304	1841
8.312	1833
8.32	1791
8.328	1734
8.336	1702
8.344	1683
8.352	1671
8.36	1662
8.368	1660
8.376	1665
8.384	1671
8.392	1677
8.4	1683
8.408	1683
8.416	1677
8.424	1668
8.432	1660
8.44	1656
8.448	1657
8.456	1664
8.464	1673
8.472	1681
8.48	1685
8.488	1687
8.496	1685
8.504	1681
8.512	1679
8.52	1675
8.528	1673
8.536	1675
8.544	1679
8.552	1684
8.56	1686
8.568	1687
8.576	1688
8.584	1691
8.592	1699
8.6	1709
8.608	1726
8.616	1752
8.624	1784
8.632	1825
8.64	1873
8.648	1927
8.656	1988
8.664	2049
8.672	2110
8.68	2173
8.688	2239
8.696	2303
8.704	2362
8.712	2409
8.72	2445
8.728	2469
8.736	2481
8.744	2484
8.752	2476
8.76	2463
8.768	2448
8.776	2428
8.784	2406
8.792	2380
8.8	2351
8.808	2324
8.816	2298
8.824	2273
8.832	2249
8.84	2228
8.848	2208
8.856	2189
8.864	2174
8.872	2157
8.88	2140
8.888	2128
8.896	2119
8.904	2112
8.912	2105
8.92	2099
8.928	2093
8.936	2087
8.944	2080
8.952	2069
8.96	2061
8.968	2054
8.976	2044
8.984	2033
8.992	2025
9	2021
9.008	2019
9.016	2018
9.024	2017
9.032	2017
9.04	2020
9.048	2024
9.056	2026
9.064	2024
9.072	2020
9.08	2018
9.088	2014
9.096	2009
9.104	2007
9.112	2003
9.12	1998
9.128	1995
9.136	1994
9.144	1993
9.152	1993
9.16	1993
9.168	1993
9.176	1993
9.184	1993
9.192	1993
9.2	1990
9.208	1985
9.216	1983
9.224	1982
9.232	1981
9.24	1981
9.248	1981
9.256	1984
9.264	1991
9.272	1998
9.28	2004
9.288	2013
9.296	2024
9.304	2032
9.312	2039
9.32	2046
9.328	2052
9.336	2058
9.344	2061
9.352	2063
9.36	2064
9.368	2064
9.376	2064
9.384	2064
9.392	2064
9.4	2064
9.408	2064
9.416	2064
9.424	2068
9.432	2080
9.44	2101
9.448	2133
9.456	2173
9.464	2220
9.472	2277
9.48	2343
9.488	2409
9.496	2472
9.504	2534
9.512	2593
9.52	2647
9.528	2695
9.536	2734
9.544	2765
9.552	2790
9.56	2805
9.568	2813
9.576	2814
9.584	2805
9.592	2789
9.6	2766
9.608	2733
9.616	2693
9.624	2648
9.632	2597
9.64	2542
9.648	2490
9.656	2446
9.664	2409
9.672	2375
9.68	2342
9.688	2310
9.696	2279
9.704	2249
9.712	2219
9.72	2189
9.728	2159
9.736	2132
9.744	2105
9.752	2082
9.76	2064
9.768	2046
9.776	2028
9.784	2010
9.792	1992
9.8	1974
9.808	1956
9.816	1938
9.824	1917
9.832	1898
9.84	1879
9.848	1858
9.856	1834
9.864	1812
9.872	1792
9.88	1773
9.888	1755
9.896	1737
9.904	1719
9.912	1701
9.92	1686
9.928	1672
9.936	1659
9.944	1650
9.952	1642
9.96	1635
9.968	1632
9.976	1630
9.984	1626
9.992	1621
10	1619
10.008	1615
10.016	1607
10.024	1597
10.032	1586
10.04	1577
10.048	1570
10.056	1560
10.064	1552
10.072	1548
10.08	1546
10.088	1542
10.096	1537
10.104	1532
10.112	1526
10.12	1520
10.128	1514
10.136	1511
10.144	1510
10.152	1509
10.16	1509
10.168	1505
10.176	1499
10.184	1496
10.192	1494
10.2	1490
10.208	1485
10.216	1483
10.224	1485
10.232	1489
10.24	1495
10.248	1502
10.256	1508
10.264	1514
10.272	1520
10.28	1532
10.288	1553
10.296	1585
10.304	1625
10.312	1672
10.32	1722
10.328	1775
10.336	1830
10.344	1881
10.352	1931
10.36	1977
10.368	1999
10.376	2003
10.384	2010
10.392	2017
10.4	2023
10.408	2024
10.416	2020
10.424	2013
10.432	2003
10.44	1991
10.448	1978
10.456	1964
10.464	1950
10.472	1936
10.48	1922
10.488	1909
10.496	1898
10.504	1887
10.512	1878
10.52	1868
10.528	1858
10.536	1849
10.544	1842
10.552	1835
10.56	1828
10.568	1820
10.576	1814
10.584	1810
10.592	1805
10.6	1799
10.608	1794
10.616	1790
10.624	1787
10.632	1786
10.64	1785
10.648	1785
10.656	1785
10.664	1785
10.672	1785
10.68	1785
10.688	1785
10.696	1785
10.704	1785
10.712	1785
10.72	1785
10.728	1785
10.736	1785
10.744	1785
10.752	1785
10.76	1785
10.768	1785
10.776	1785
10.784	1785
10.792	1785
10.8	1785
10.808	1785
10.816	1785
10.824	1785
10.832	1785
10.84	1785
10.848	1785
10.856	1785
10.864	1785
10.872	1785
10.88	1785
10.888	1785
10.896	1785
10.904	1785
10.912	1785
10.92	1785
10.928	1785
10.936	1785
10.944	1785
10.952	1785
10.96	1785
10.968	1785
10.976	1785
10.984	1785
10.992	1785
11	1785
11.008	1785
11.016	1785
11.024	1785
11.032	1785
11.04	1785
11.048	1785
11.056	1785
11.064	1785
11.072	1788
11.08	1795
11.088	1808
11.096	1825
11.104	1848.00000000001
11.112	1876
11.12	1907.00000000001
11.128	1939
11.136	1969.00000000001
11.144	1998
11.152	2024.00000000001
11.16	2048
11.168	2071
11.176	2091
11.184	2108
11.192	2122
11.2	2132
11.208	2138
11.216	2138
11.224	2133
11.232	2124
11.24	2110
11.248	2094
11.256	2078
11.264	2061
11.272	2044
11.28	2027
11.288	2012
11.296	2000
11.304	1990
11.312	1982
11.32	1977
11.328	1973
11.336	1969
11.344	1965
11.352	1959
11.36	1953
11.368	1949
11.376	1945
11.384	1939
11.392	1934
11.4	1931
11.408	1928
11.416	1923
11.424	1918
11.432	1911
11.44	1904
11.448	1898
11.456	1894
11.464	1891
11.472	1890
11.48	1887
11.488	1882
11.496	1875
11.504	1867
11.512	1858
11.52	1849
11.528	1842
11.536	1835
11.544	1830
11.552	1825
11.56	1819
11.568	1814
11.576	1808
11.584	1800
11.592	1793
11.6	1789
11.608	1787
11.616	1786
11.624	1785
11.632	1785
11.64	1785
11.648	1785
11.656	1785
11.664	1785
11.672	1785
11.68	1785
11.688	1785
11.696	1785
11.704	1785
11.712	1785
11.72	1785
11.728	1785
11.736	1785
11.744	1785
11.752	1785
11.76	1785
11.768	1785
11.776	1785
11.784	1785
11.792	1785
11.8	1785
11.808	1785
11.816	1785
11.824	1785
11.832	1785
11.84	1785
11.848	1785
11.856	1785
11.864	1785
11.872	1785
11.88	1785
11.888	1785
11.896	1786
11.904	1791
11.912	1801
11.92	1814
11.928	1832
11.936	1857
11.944	1888
11.952	1922
11.96	1958
11.968	1994
11.976	2028
11.984	2059
11.992	2089
12	2116
12.008	2139.00000000001
12.016	2160
12.024	2175
12.032	2186
12.04	2193
12.048	2197
12.056	2196
12.064	2188
12.072	2177
12.08	2164
12.088	2146
12.096	2126
12.104	2108
12.112	2090
12.12	2074
12.128	2061
12.136	2048
12.144	2034
12.152	2021
12.16	2012
12.168	2004
12.176	1996
12.184	1990
12.192	1985
12.2	1981
12.208	1981
12.216	1983
12.224	1984
12.232	1982
12.24	1979
12.248	1977
12.256	1973
12.264	1967
12.272	1960
12.28	1951
12.288	1942
12.296	1933
12.304	1926
12.312	1919
12.32	1912
12.328	1906
12.336	1901
12.344	1897
12.352	1894
12.36	1889
12.368	1883
12.376	1876
12.384	1855
12.392	1827
12.4	1807
12.408	1791
12.416	1773
12.424	1754
12.432	1738
12.44	1724
12.448	1707
12.456	1689
12.464	1677
12.472	1671
12.48	1668
12.488	1666
12.496	1665
12.504	1665
12.512	1665
12.52	1665
12.528	1665
12.536	1665
12.544	1665
12.552	1665
12.56	1665
12.568	1665
12.576	1665
12.584	1665
12.592	1665
12.6	1665
12.608	1665
12.616	1665
12.624	1662
12.632	1657
12.64	1652
12.648	1649
12.656	1651
12.664	1655
12.672	1660
12.68	1662
12.688	1663
12.696	1664
12.704	1664
12.712	1664
12.72	1664
12.728	1667
12.736	1679
12.744	1698
12.752	1726
12.76	1769
12.768	1826
12.776	1892
12.784	1960
12.792	2029
12.8	2099
12.808	2163
12.816	2221
12.824	2276
12.832	2325
12.84	2366
12.848	2399
12.856	2425
12.864	2441
12.872	2449
12.88	2453
12.888	2452
12.896	2442
12.904	2424
12.912	2402
12.92	2375
12.928	2343
12.936	2308
12.944	2271
12.952	2237
12.96	2207
12.968	2179
12.976	2152
12.984	2129
12.992	2112
13	2096
13.008	2081
13.016	2071
13.024	2066
13.032	2063
13.04	2062
13.048	2061
13.056	2061
13.064	2061
13.072	2061
13.08	2061
13.088	2061
13.096	2061
13.104	2061
13.112	2061
13.12	2058
13.128	2053
13.136	2051
13.144	2047
13.152	2042
13.16	2036
13.168	2030
13.176	2027
13.184	2029
13.192	2033
13.2	2038
13.208	2040
13.216	2038
13.224	2037
13.232	2034
13.24	2029
13.248	2027
13.256	2026
13.264	2025
13.272	2028
13.28	2032
13.288	2034
13.296	2035
13.304	2033
13.312	2025
13.32	2014
13.328	2005
13.336	1998
13.344	1991
13.352	1988
13.36	1986
13.368	1985
13.376	1988
13.384	1992
13.392	1994
13.4	1995
13.408	1996
13.416	1996
13.424	1996
13.432	1996
13.44	1999
13.448	2004
13.456	2006
13.464	2007
13.472	2008
13.48	2008
13.488	2008
13.496	2005
13.504	2001
13.512	2002
13.52	2009
13.528	2020
13.536	2034
13.544	2054
13.552	2077
13.56	2105
13.568	2141
13.576	2184
13.584	2234
13.592	2291
13.6	2355
13.608	2426
13.616	2500
13.624	2575
13.632	2651
13.64	2727
13.648	2797
13.656	2855
13.664	2900
13.672	2935
13.68	2960
13.688	2972
13.696	2974
13.704	2962
13.712	2937
13.72	2906
13.728	2871
13.736	2831
13.744	2789
13.752	2746
13.76	2701
13.768	2660
13.776	2617
13.784	2573
13.792	2532
13.8	2492
13.808	2456
13.816	2425
13.824	2394
13.832	2362
13.84	2336
13.848	2314
13.856	2293
13.864	2276
13.872	2261
13.88	2245
13.888	2227
13.896	2208
13.904	2186
13.912	2162
13.92	2137
13.928	2112
13.936	2089
13.944	2072
13.952	2057
13.96	2044
13.968	2027
13.976	2009
13.984	1991
13.992	1969
14	1948
14.008	1928
14.016	1905
14.024	1884
14.032	1864
14.04	1844
14.048	1824
14.056	1805
14.064	1790
14.072	1775
14.08	1761
14.088	1745
14.096	1728
14.104	1712
14.112	1694
14.12	1679
14.128	1669
14.136	1658
14.144	1649
14.152	1642
14.16	1635
14.168	1628
14.176	1620
14.184	1613
14.192	1607
14.2	1601
14.208	1592
14.216	1581
14.224	1569
14.232	1556
14.24	1546
14.248	1541
14.256	1539
14.264	1538
14.272	1537
14.28	1537
14.288	1537
14.296	1534
14.304	1526
14.312	1516
14.32	1508
14.328	1504
14.336	1502
14.344	1501
14.352	1504
14.36	1508
14.368	1510
14.376	1511
14.384	1512
14.392	1515
14.4	1523
14.408	1537
14.416	1557
14.424	1586
14.432	1642
14.44	1704
14.448	1747
14.456	1782
14.464	1814
14.472	1845
14.48	1872
14.488	1897
14.496	1922
14.504	1940
14.512	1952
14.52	1960
14.528	1964
14.536	1964
14.544	1961
14.552	1959
14.56	1956
14.568	1949
14.576	1941
14.584	1932
14.592	1921
14.6	1909
14.608	1898
14.616	1887
14.624	1877
14.632	1869
14.64	1860
14.648	1850
14.656	1841
14.664	1834
14.672	1827
14.68	1820
14.688	1813
14.696	1807
14.704	1802
14.712	1797
14.72	1793
14.728	1790
14.736	1787
14.744	1786
14.752	1783
14.76	1778
14.768	1772
14.776	1765
14.784	1759
14.792	1756
14.8	1754
14.808	1753
14.816	1753
14.824	1753
14.832	1753
14.84	1753
14.848	1753
14.856	1753
14.864	1753
14.872	1753
14.88	1753
14.888	1753
14.896	1753
14.904	1753
14.912	1753
14.92	1753
14.928	1753
14.936	1753
14.944	1753
14.952	1753
14.96	1753
14.968	1753
14.976	1753
14.984	1753
14.992	1753
15	1753
15.008	1753
15.016	1753
15.024	1753
15.032	1753
15.04	1753
15.048	1753
15.056	1753
15.064	1753
15.072	1753
15.08	1753
15.088	1753
15.096	1753
15.104	1753
15.112	1753
15.12	1753
15.128	1753
15.136	1753
15.144	1753
15.152	1753
15.16	1753
15.168	1753
15.176	1753
15.184	1753
15.192	1753
15.2	1753
15.208	1753
15.216	1753
15.224	1754
15.232	1757
15.24	1762
15.248	1770
15.256	1784
15.264	1803
15.272	1827
15.28	1854.00000000001
15.288	1883
15.296	1913.00000000001
15.304	1941
15.312	1968.00000000001
15.32	1993
15.328	2016
15.336	2035
15.344	2052
15.352	2065
15.36	2073
15.368	2077
15.376	2078
15.384	2073
15.392	2064
15.4	2053
15.408	2041
15.416	2026
15.424	2010
15.432	1994
15.44	1978
15.448	1963
15.456	1951
15.464	1942
15.472	1934
15.48	1927
15.488	1920
15.496	1914
15.504	1910
15.512	1905
15.52	1901
15.528	1897
15.536	1893
15.544	1890
15.552	1887
15.56	1886
15.568	1883
15.576	1880
15.584	1876
15.592	1871
15.6	1868
15.608	1866
15.616	1863
15.624	1860
15.632	1856
15.64	1852
15.648	1849
15.656	1845
15.664	1839
15.672	1833
15.68	1827
15.688	1820
15.696	1813
15.704	1809
15.712	1805
15.72	1799
15.728	1793
15.736	1787
15.744	1780
15.752	1774
15.76	1770
15.768	1767
15.776	1764
15.784	1759
15.792	1756
15.8	1754
15.808	1753
15.816	1753
15.824	1753
15.832	1753
15.84	1753
15.848	1753
15.856	1753
15.864	1753
15.872	1753
15.88	1753
15.888	1753
15.896	1753
15.904	1753
15.912	1753
15.92	1753
15.928	1753
15.936	1753
15.944	1753
15.952	1753
15.96	1753
15.968	1753
15.976	1753
15.984	1753
15.992	1753
16	1753
16.008	1753
16.016	1753
16.024	1753
16.032	1753
16.04	1753
16.048	1754
16.056	1755
16.064	1758
16.072	1764
16.08	1775.00000000001
16.088	1793
16.096	1815
16.104	1842
16.112	1874.00000000001
16.12	1908
16.128	1943
16.136	1978
16.144	2010.00000000001
16.152	2038
16.16	2062
16.168	2084
16.176	2101.00000000001
16.184	2113
16.192	2122
16.2	2127
16.208	2129
16.216	2127
16.224	2123
16.232	2116
16.24	2102.99999999999
16.248	2087
16.256	2069
16.264	2052
16.272	2034.99999999999
16.28	2017
16.288	2000
16.296	1984
16.304	1971
16.312	1962
16.32	1953
16.328	1946
16.336	1941
16.344	1939
16.352	1938
16.36	1937
16.368	1935
16.376	1932
16.384	1930
16.392	1928
16.4	1926
16.408	1923
16.416	1920
16.424	1918
16.432	1915
16.44	1912
16.448	1909
16.456	1905
16.464	1899
16.472	1893
16.48	1898
16.488	1909
16.496	1912
16.504	1907
16.512	1902
16.52	1895
16.528	1885
16.536	1874
16.544	1862
16.552	1850
16.56	1841
16.568	1833
16.576	1822
16.584	1810
16.592	1798
16.6	1786
16.608	1773
16.616	1760
16.624	1750
16.632	1742
16.64	1732
16.648	1721
16.656	1713
16.664	1705
16.672	1697
16.68	1690
16.688	1683
16.696	1680
16.704	1678
16.712	1677
16.72	1677
16.728	1674
16.736	1669
16.744	1667
16.752	1669
16.76	1673
16.768	1675
16.776	1676
16.784	1676
16.792	1676
16.8	1676
16.808	1676
16.816	1676
16.824	1676
16.832	1676
16.84	1676
16.848	1676
16.856	1676
16.864	1676
16.872	1679
16.88	1688
16.888	1699
16.896	1714
16.904	1734
16.912	1760
16.92	1795
16.928	1839
16.936	1890
16.944	1950
16.952	2015
16.96	2080
16.968	2144
16.976	2208
16.984	2269
16.992	2326
17	2376
17.008	2417
17.016	2445.00000000001
17.024	2459
17.032	2466
17.04	2465
17.048	2458
17.056	2445
17.064	2426
17.072	2403
17.08	2375.99999999999
17.088	2346
17.096	2315
17.104	2281
17.112	2244.99999999998
17.12	2208
17.128	2173
17.136	2140
17.144	2109.99999999999
17.152	2088
17.16	2071
17.168	2060
17.176	2054
17.184	2051
17.192	2050
17.2	2049
17.208	2049
17.216	2049
17.224	2049
17.232	2049
17.24	2049
17.248	2046
17.256	2041
17.264	2036
17.272	2030
17.28	2023
17.288	2016
17.296	2009
17.304	2003
17.312	2003
17.32	2006
17.328	2007
17.336	2008
17.344	2008
17.352	2005
17.36	2001
17.368	1996
17.376	1990
17.384	1987
17.392	1986
17.4	1988
17.408	1992
17.416	1997
17.424	2003
17.432	2010
17.44	2017
17.448	2021
17.456	2023
17.464	2024
17.472	2024
17.48	2024
17.488	2024
17.496	2024
17.504	2024
17.512	2024
17.52	2024
17.528	2024
17.536	2027
17.544	2032
17.552	2034
17.56	2035
17.568	2036
17.576	2036
17.584	2036
17.592	2039
17.6	2044
17.608	2046
17.616	2047
17.624	2048
17.632	2048
17.64	2048
17.648	2048
17.656	2051
17.664	2056
17.672	2061
17.68	2067
17.688	2070
17.696	2071
17.704	2076
17.712	2085
17.72	2099
17.728	2122
17.736	2159
17.744	2210
17.752	2267
17.76	2334
17.768	2408
17.776	2484
17.784	2561
17.792	2638
17.8	2714
17.808	2784
17.816	2845
17.824	2898
17.832	2943
17.84	2986
17.848	3020
17.856	3043
17.864	3055
17.872	3051
17.88	3033
17.888	3002
17.896	2957
17.904	2909
17.912	2863
17.92	2818
17.928	2779
17.936	2744
17.944	2710
17.952	2677
17.96	2641
17.968	2604
17.976	2569
17.984	2536
17.992	2503
18	2474
18.008	2450
18.016	2427.99999999999
18.024	2407
18.032	2388
18.04	2369
18.048	2349.99999999999
18.056	2330
18.064	2314
18.072	2296
18.08	2273.99999999999
18.088	2254
18.096	2234
18.104	2211
18.112	2187.99999999999
18.12	2160
18.128	2130
18.136	2105
18.144	2085.99999999999
18.152	2070
18.16	2056
18.168	2043
18.176	2029.99999999999
18.184	2016
18.192	2003
18.2	1991
18.208	1978.99999999999
18.216	1966
18.224	1952
18.232	1936
18.24	1918.99999999999
18.248	1904
18.256	1889
18.264	1876
18.272	1862.99999999999
18.28	1847
18.288	1829
18.296	1811
18.304	1792.99999999999
18.312	1774
18.32	1754
18.328	1735
18.336	1715.99999999999
18.344	1699
18.352	1688
18.36	1679
18.368	1672
18.376	1665
18.384	1659
18.392	1653
18.4	1647
18.408	1641
18.416	1635
18.424	1629
18.432	1623
18.44	1620
18.448	1618
18.456	1617
18.464	1613
18.472	1607
18.48	1601
18.488	1595
18.496	1592
18.504	1590
18.512	1589
18.52	1592
18.528	1598
18.536	1605
18.544	1613
18.552	1621
18.56	1631
18.568	1642
18.576	1652
18.584	1664
18.592	1680
18.6	1702
18.608	1728
18.616	1756
18.624	1786
18.632	1817
18.64	1848
18.648	1876
18.656	1900
18.664	1920
18.672	1936
18.68	1948
18.688	1954
18.696	1953
18.704	1949
18.712	1939
18.72	1922
18.728	1903
18.736	1887
18.744	1870
18.752	1851
18.76	1832
18.768	1814
18.776	1799
18.784	1786
18.792	1776
18.8	1768
18.808	1760
18.816	1752
18.824	1744
18.832	1736
18.84	1728
18.848	1720
18.856	1712
18.864	1704
18.872	1696
18.88	1690
18.888	1685
18.896	1679
18.904	1674
18.912	1669
18.92	1664
18.928	1660
18.936	1658
18.944	1657
18.952	1657
18.96	1657
18.968	1657
18.976	1657
18.984	1655
18.992	1652
19	1648
19.008	1644
19.016	1642
19.024	1639
19.032	1636
19.04	1636
19.048	1638
19.056	1637
19.064	1635
19.072	1632
19.08	1628
19.088	1624
19.096	1620
19.104	1616
19.112	1614
19.12	1615
19.128	1616
19.136	1616
19.144	1614
19.152	1611
19.16	1610
19.168	1609
19.176	1609
19.184	1609
19.192	1609
19.2	1611
19.208	1614
19.216	1617
19.224	1621
19.232	1625
19.24	1629
19.248	1631
19.256	1632
19.264	1634
19.272	1637
19.28	1639
19.288	1640
19.296	1640
19.304	1640
19.312	1642
19.32	1647
19.328	1652
19.336	1654
19.344	1655
19.352	1656
19.36	1656
19.368	1656
19.376	1656
19.384	1657
19.392	1659
19.4	1664
19.408	1674
19.416	1689
19.424	1711
19.432	1737.00000000001
19.44	1765
19.448	1797
19.456	1832
19.464	1864
19.472	1894
19.48	1923
19.488	1950
19.496	1972
19.504	1990
19.512	2005
19.52	2015
19.528	2020
19.536	2020
19.544	2016
19.552	2008
19.56	1997
19.568	1983
19.576	1966
19.584	1947
19.592	1928
19.6	1910
19.608	1895
19.616	1885
19.624	1875
19.632	1864
19.64	1854
19.648	1845
19.656	1839
19.664	1836
19.672	1834
19.68	1831
19.688	1828
19.696	1826
19.704	1823
19.712	1820
19.72	1816
19.728	1812
19.736	1810
19.744	1809
19.752	1807
19.76	1802
19.768	1795
19.776	1788
19.784	1780
19.792	1773
19.8	1767
19.808	1760
19.816	1754
19.824	1751
19.832	1748
19.84	1742
19.848	1735
19.856	1728
19.864	1718
19.872	1707
19.88	1698
19.888	1689
19.896	1681
19.904	1673
19.912	1666
19.92	1661
19.928	1659
19.936	1658
19.944	1657
19.952	1657
19.96	1657
19.968	1657
19.976	1657
19.984	1657
19.992	1657
20	1657
20.008	1657
20.016	1657
20.024	1657
20.032	1657
20.04	1657
20.048	1657
20.056	1657
20.064	1657
20.072	1657
20.08	1657
20.088	1657
20.096	1657
20.104	1657
20.112	1657
20.12	1657
20.128	1657
20.136	1657
20.144	1657
20.152	1657
20.16	1657
20.168	1657
20.176	1657
20.184	1657
20.192	1657
20.2	1657
20.208	1657
20.216	1658
20.224	1661
20.232	1667
20.24	1678.00000000001
20.248	1697
20.256	1723
20.264	1753
20.272	1789.00000000002
20.28	1830
20.288	1871
20.296	1912
20.304	1949.00000000002
20.312	1983
20.32	2014
20.328	2039
20.336	2060.00000000001
20.344	2077
20.352	2091
20.36	2100
20.368	2104
20.376	2104
20.384	2101
20.392	2093
20.4	2078.99999999999
20.408	2062
20.416	2041
20.424	2021
20.432	2001.99999999999
20.44	1983
20.448	1966
20.456	1947
20.464	1927.99999999999
20.472	1912
20.48	1900
20.488	1890
20.496	1882
20.504	1875
20.512	1870
20.52	1867
20.528	1866
20.536	1865
20.544	1863
20.552	1860
20.56	1856
20.568	1850
20.576	1885
20.584	1939
20.592	1959
20.6	1966
20.608	1965
20.616	1961
20.624	1956
20.632	1950
20.64	1944
20.648	1934
20.656	1925
20.664	1918
20.672	1911
20.68	1904
20.688	1893
20.696	1885
20.704	1877
20.712	1866
20.72	1857
20.728	1849
20.736	1838
20.744	1822
20.752	1804
20.76	1788
20.768	1773
20.776	1759
20.784	1745
20.792	1735
20.8	1720
20.808	1708
20.816	1695
20.824	1676
20.832	1671
20.84	1665
20.848	1659
20.856	1658
20.864	1660
20.872	1664
20.88	1666
20.888	1671
20.896	1674
20.904	1671
20.912	1670
20.92	1669
20.928	1669
20.936	1669
20.944	1669
20.952	1673
20.96	1679
20.968	1682
20.976	1683
20.984	1684
20.992	1684
21	1684
21.008	1684
21.016	1685
21.024	1695
21.032	1709
21.04	1734
21.048	1770.00000000002
21.056	1819
21.064	1882
21.072	1954
21.08	2028.00000000003
21.088	2099
21.096	2170
21.104	2236
21.112	2296.00000000003
21.12	2351
21.128	2396
21.136	2435
21.144	2469.00000000001
21.152	2493
21.16	2512
21.168	2524
21.176	2527
21.184	2519
21.192	2497
21.2	2465
21.208	2428.99999999998
21.216	2387
21.224	2342
21.232	2295
21.24	2247.99999999998
21.248	2203
21.256	2163
21.264	2133
21.272	2110.99999999999
21.28	2096
21.288	2085
21.296	2077
21.304	2070
21.312	2059
21.32	2047
21.328	2031
21.336	2011.99999999999
21.344	1998
21.352	1991
21.36	1988
21.368	1986
21.376	1985
21.384	1985
21.392	1985
21.4	1982
21.408	1970
21.416	1954
21.424	1939
21.432	1924.99999999999
21.44	1911
21.448	1897
21.456	1883
21.464	1872
21.472	1863
21.48	1852
21.488	1839
21.496	1830
21.504	1825
21.512	1820
21.52	1814
21.528	1807
21.536	1800
21.544	1793
21.552	1787
21.56	1780
21.568	1772
21.576	1768
21.584	1766
21.592	1765
21.6	1765
21.608	1765
21.616	1765
21.624	1765
21.632	1765
21.64	1762
21.648	1757
21.656	1758
21.664	1761
21.672	1767
21.68	1774
21.688	1780
21.696	1786
21.704	1786
21.712	1783
21.72	1782
21.728	1777
21.736	1771
21.744	1772
21.752	1776
21.76	1781
21.768	1791
21.776	1800
21.784	1804
21.792	1806
21.8	1810
21.808	1815
21.816	1818
21.824	1822
21.832	1827
21.84	1837
21.848	1856
21.856	1886
21.864	1929
21.872	1985
21.88	2054
21.888	2133
21.896	2221
21.904	2313
21.912	2404
21.92	2487
21.928	2564
21.936	2633
21.944	2695
21.952	2754
21.96	2811
21.968	2864
21.976	2907
21.984	2939
21.992	2955
22	2960
22.008	2955
22.016	2938.99999999999
22.024	2910
22.032	2871
22.04	2828
22.048	2778.99999999998
22.056	2731
22.064	2686
22.072	2646
22.08	2608.99999999998
22.088	2577
22.096	2550
22.104	2526
22.112	2506.99999999999
22.12	2491
22.128	2476
22.136	2461
22.144	2451
22.152	2443
22.16	2432
22.168	2422
22.176	2414
22.184	2403
22.192	2394
22.2	2386
22.208	2374.99999999999
22.216	2359
22.224	2341
22.232	2322
22.24	2297.99999999999
22.248	2276
22.256	2255
22.264	2231
22.272	2208.99999999999
22.28	2188
22.288	2163
22.296	2140
22.304	2120.99999999999
22.312	2105
22.32	2090
22.328	2079
22.336	2071
22.344	2064
22.352	2056
22.36	2045
22.368	2032.99999999999
22.376	2020
22.384	2006
22.392	1992
22.4	1977.99999999999
22.408	1964
22.416	1951
22.424	1942
22.432	1933
22.44	1925
22.448	1918
22.456	1907
22.464	1898
22.472	1890
22.48	1876
22.488	1858
22.496	1841.99999999999
22.504	1828
22.512	1814
22.52	1800
22.528	1786
22.536	1772
22.544	1762
22.552	1753
22.56	1745
22.568	1738
22.576	1724
22.584	1707
22.592	1677
22.6	1639
22.608	1613
22.616	1597
22.624	1589
22.632	1585
22.64	1583
22.648	1582
22.656	1581
22.664	1581
22.672	1584
22.68	1588
22.688	1592
22.696	1601
22.704	1613
22.712	1628
22.72	1649
22.728	1674
22.736	1702
22.744	1734
22.752	1769
22.76	1808
22.768	1848
22.776	1885
22.784	1915
22.792	1939
22.8	1961
22.808	1977
22.816	1985
22.824	1986
22.832	1981
22.84	1972
22.848	1958
22.856	1940
22.864	1919
22.872	1899
22.88	1877
22.888	1852
22.896	1828
22.904	1805
22.912	1782
22.92	1760
22.928	1740
22.936	1723
22.944	1708
22.952	1693
22.96	1679
22.968	1665
22.976	1651
22.984	1638
22.992	1629
23	1625
23.008	1623
23.016	1622
23.024	1621
23.032	1621
23.04	1621
23.048	1618
23.056	1613
23.064	1611
23.072	1610
23.08	1609
23.088	1609
23.096	1609
23.104	1607
23.112	1604
23.12	1602
23.128	1599
23.136	1596
23.144	1594
23.152	1593
23.16	1593
23.168	1595
23.176	1598
23.184	1597
23.192	1595
23.2	1591
23.208	1584
23.216	1578
23.224	1573
23.232	1569
23.24	1567
23.248	1568
23.256	1570
23.264	1571
23.272	1572
23.28	1572
23.288	1572
23.296	1572
23.304	1572
23.312	1572
23.32	1572
23.328	1572
23.336	1572
23.344	1570
23.352	1567
23.36	1566
23.368	1565
23.376	1565
23.384	1565
23.392	1567
23.4	1570
23.408	1573
23.416	1577
23.424	1579
23.432	1580
23.44	1580
23.448	1583
23.456	1588
23.464	1592
23.472	1598
23.48	1606
23.488	1613
23.496	1617
23.504	1619
23.512	1620
23.52	1620
23.528	1622
23.536	1627
23.544	1637
23.552	1654
23.56	1676
23.568	1703
23.576	1738
23.584	1776
23.592	1816
23.6	1855
23.608	1889
23.616	1920
23.624	1949
23.632	1973
23.64	1989
23.648	2002
23.656	2011
23.664	2013
23.672	2007
23.68	1995
23.688	1979
23.696	1959
23.704	1938
23.712	1916
23.72	1893
23.728	1872
23.736	1854
23.744	1838
23.752	1823
23.76	1812
23.768	1801
23.776	1789
23.784	1776
23.792	1764
23.8	1756
23.808	1750
23.816	1745
23.824	1743
23.832	1739
23.84	1734
23.848	1729
23.856	1723
23.864	1715
23.872	1706
23.88	1699
23.888	1694
23.896	1689
23.904	1684
23.912	1678
23.92	1673
23.928	1667
23.936	1662
23.944	1656
23.952	1650
23.96	1645
23.968	1639
23.976	1634
23.984	1629
23.992	1622
24	1615
24.008	1610
24.016	1605
24.024	1603
24.032	1602
24.04	1601
24.048	1603
24.056	1606
24.064	1607
24.072	1608
24.08	1608
24.088	1608
24.096	1608
24.104	1608
24.112	1608
24.12	1608
24.128	1608
24.136	1608
24.144	1608
24.152	1608
24.16	1608
24.168	1608
24.176	1608
24.184	1611
24.192	1616
24.2	1618
24.208	1619
24.216	1620
24.224	1620
24.232	1620
24.24	1620
24.248	1620
24.256	1620
24.264	1620
24.272	1620
24.28	1620
24.288	1620
24.296	1620
24.304	1620
24.312	1620
24.32	1620
24.328	1620
24.336	1620
24.344	1622
24.352	1627
24.36	1634
24.368	1646.00000000001
24.376	1666
24.384	1690
24.392	1721
24.4	1761.00000000002
24.408	1804
24.416	1848
24.424	1891
24.432	1934.00000000002
24.44	1976
24.448	2016
24.456	2053
24.464	2083.00000000001
24.472	2107
24.48	2126
24.488	2140
24.496	2150
24.504	2152
24.512	2148
24.52	2139
24.528	2122.99999999999
24.536	2101
24.544	2074
24.552	2044
24.56	2014.99999999999
24.568	1989
24.576	1964
24.584	1940
24.592	1921
24.6	1909
24.608	1901
24.616	1893
24.624	1884
24.632	1874
24.64	1911
24.648	1971
24.656	1998
24.664	2008
24.672	2007
24.68	2001
24.688	1992
24.696	1984
24.704	1977
24.712	1968
24.72	1960
24.728	1953
24.736	1947
24.744	1941
24.752	1935
24.76	1929
24.768	1920
24.776	1909
24.784	1898
24.792	1886
24.8	1874
24.808	1862
24.816	1850
24.824	1838
24.832	1826
24.84	1814
24.848	1802
24.856	1790
24.864	1778
24.872	1769
24.88	1762
24.888	1752
24.896	1744
24.904	1740
24.912	1738
24.92	1737
24.928	1737
24.936	1737
24.944	1737
24.952	1737
24.96	1737
24.968	1737
24.976	1737
24.984	1737
24.992	1737
25	1737
25.008	1737
25.016	1737
25.024	1737
25.032	1737
25.04	1737
25.048	1737
25.056	1737
25.064	1737
25.072	1737
25.08	1737
25.088	1737
25.096	1737
25.104	1737
25.112	1737
25.12	1737
25.128	1737
25.136	1737
25.144	1737
25.152	1737
25.16	1737
25.168	1737
25.176	1737
25.184	1737
25.192	1743
25.2	1758
25.208	1783.00000000001
25.216	1823
25.224	1876
25.232	1938
25.24	2005.00000000003
25.248	2072
25.256	2135
25.264	2194
25.272	2247.00000000002
25.28	2298
25.288	2344
25.296	2385
25.304	2421.00000000001
25.312	2448
25.32	2464
25.328	2472
25.336	2473
25.344	2468
25.352	2456
25.36	2435
25.368	2406.99999999999
25.376	2375
25.384	2341
25.392	2306
25.4	2269.99999999998
25.408	2234
25.416	2198
25.424	2165
25.432	2139.99999999999
25.44	2121
25.448	2106
25.456	2092
25.464	2078.99999999999
25.472	2067
25.48	2052
25.488	2035
25.496	2020.99999999999
25.504	2011
25.512	2003
25.52	1993
25.528	1985
25.536	1978
25.544	1968
25.552	1957
25.56	1945.99999999999
25.568	1931
25.576	1915
25.584	1901
25.592	1884.99999999999
25.6	1871
25.608	1861
25.616	1850
25.624	1841
25.632	1834
25.64	1824
25.648	1813
25.656	1802
25.664	1790
25.672	1778
25.68	1766
25.688	1754
25.696	1745
25.704	1741
25.712	1739
25.72	1738
25.728	1737
25.736	1737
25.744	1737
25.752	1737
25.76	1737
25.768	1737
25.776	1737
25.784	1737
25.792	1737
25.8	1737
25.808	1737
25.816	1737
25.824	1737
25.832	1737
25.84	1737
25.848	1737
25.856	1737
25.864	1737
25.872	1737
25.88	1737
25.888	1737
25.896	1737
25.904	1737
25.912	1740
25.92	1744
25.928	1746
25.936	1747
25.944	1748
25.952	1748
25.96	1748
25.968	1751
25.976	1759
25.984	1769
25.992	1783
26	1799
26.008	1819
26.016	1847.00000000001
26.024	1879
26.032	1919
26.04	1969
26.048	2027.00000000003
26.056	2092
26.064	2160
26.072	2233
26.08	2312.00000000004
26.088	2390
26.096	2465
26.104	2536
26.112	2601.00000000003
26.12	2658
26.128	2704
26.136	2742
26.144	2767.00000000001
26.152	2780
26.16	2786
26.168	2783
26.176	2769.99999999999
26.184	2751
26.192	2730
26.2	2704
26.208	2672.99999999999
26.216	2640
26.224	2605
26.232	2570
26.24	2533.99999999998
26.248	2501
26.256	2476
26.264	2454
26.272	2433.99999999999
26.28	2418
26.288	2404
26.296	2391
26.304	2378.99999999999
26.312	2367
26.32	2358
26.328	2350
26.336	2343
26.344	2337
26.352	2328
26.36	2317
26.368	2305.99999999999
26.376	2294
26.384	2282
26.392	2267
26.4	2250.99999999999
26.408	2237
26.416	2227
26.424	2219
26.432	2209
26.44	2198
26.448	2186
26.456	2174
26.464	2158.99999999999
26.472	2143
26.48	2129
26.488	2119
26.496	2111
26.504	2104
26.512	2100
26.52	2095
26.528	2087
26.536	2080
26.544	2073
26.552	2064
26.56	2053
26.568	2045
26.576	2041
26.584	2039
26.592	2035
26.6	2030
26.608	2024
26.616	2015
26.624	2005
26.632	1997
26.64	1990
26.648	1980
26.656	1972
26.664	1965
26.672	1959
26.68	1953
26.688	1913
26.696	1859
26.704	1830
26.712	1813
26.72	1805
26.728	1801
26.736	1799
26.744	1798
26.752	1795
26.76	1792
26.768	1787
26.776	1780
26.784	1772
26.792	1764
26.8	1758
26.808	1753
26.816	1749
26.824	1747
26.832	1746
26.84	1745
26.848	1747
26.856	1752
26.864	1760
26.872	1775
26.88	1799
26.888	1828
26.896	1859
26.904	1893
26.912	1930
26.92	1967
26.928	2003
26.936	2039
26.944	2072
26.952	2101
26.96	2127
26.968	2147
26.976	2162
26.984	2171
26.992	2174
27	2170
27.008	2159
27.016	2142.99999999999
27.024	2122
27.032	2096
27.04	2067
27.048	2035.99999999999
27.056	2005
27.064	1977
27.072	1952
27.08	1929.99999999999
27.088	1911
27.096	1893
27.104	1877
27.112	1862.99999999999
27.12	1847
27.128	1832
27.136	1820
27.144	1812
27.152	1806
27.16	1799
27.168	1791
27.176	1782
27.184	1773
27.192	1765
27.2	1757
27.208	1748
27.216	1738
27.224	1729
27.232	1719
27.24	1708
27.248	1697
27.256	1685
27.264	1675
27.272	1668
27.28	1660
27.288	1654
27.296	1651
27.304	1648
27.312	1644
27.32	1642
27.328	1641
27.336	1639
27.344	1636
27.352	1634
27.36	1633
27.368	1633
27.376	1633
27.384	1630
27.392	1625
27.4	1621
27.408	1615
27.416	1608
27.424	1602
27.432	1597
27.44	1593
27.448	1591
27.456	1590
27.464	1589
27.472	1589
27.48	1589
27.488	1589
27.496	1589
27.504	1589
27.512	1589
27.52	1589
27.528	1586
27.536	1581
27.544	1579
27.552	1578
27.56	1580
27.568	1584
27.576	1588
27.584	1592
27.592	1594
27.6	1593
27.608	1591
27.616	1590
27.624	1589
27.632	1589
27.64	1591
27.648	1596
27.656	1604
27.664	1612
27.672	1619
27.68	1628
27.688	1636
27.696	1644
27.704	1654
27.712	1668
27.72	1686
27.728	1708
27.736	1737
27.744	1771
27.752	1805
27.76	1840
27.768	1874
27.776	1906
27.784	1936
27.792	1962
27.8	1983
27.808	2000
27.816	2013
27.824	2023
27.832	2025
27.84	2021
27.848	2013
27.856	1998
27.864	1977
27.872	1956
27.88	1936
27.888	1918
27.896	1900
27.904	1884
27.912	1872
27.92	1860
27.928	1847
27.936	1836
27.944	1826
27.952	1819
27.96	1814
27.968	1807
27.976	1800
27.984	1791
27.992	1784
28	1778
28.008	1773
28.016	1769
28.024	1765
28.032	1763
28.04	1760
28.048	1756
28.056	1752
28.064	1748
28.072	1743
28.08	1736
28.088	1728
28.096	1720
28.104	1712
28.112	1704
28.12	1698
28.128	1692
28.136	1684
28.144	1678
28.152	1673
28.16	1669
28.168	1667
28.176	1666
28.184	1665
28.192	1665
28.2	1665
28.208	1665
28.216	1665
28.224	1665
28.232	1665
28.24	1665
28.248	1665
28.256	1665
28.264	1665
28.272	1665
28.28	1665
28.288	1665
28.296	1665
28.304	1663
28.312	1660
28.32	1658
28.328	1657
28.336	1657
28.344	1659
28.352	1662
28.36	1663
28.368	1664
28.376	1664
28.384	1662
28.392	1659
28.4	1658
28.408	1657
28.416	1657
28.424	1657
28.432	1657
28.44	1659
28.448	1662
28.456	1663
28.464	1664
28.472	1664
28.48	1664
28.488	1664
28.496	1664
28.504	1664
28.512	1664
28.52	1666
28.528	1674
28.536	1687
28.544	1707
28.552	1732
28.56	1761.00000000001
28.568	1798
28.576	1838
28.584	1878
28.592	1918.00000000002
28.6	1957
28.608	1994
28.616	2028
28.624	2058.00000000001
28.632	2083
28.64	2105
28.648	2123
28.656	2134
28.664	2139
28.672	2140
28.68	2133
28.688	2121
28.696	2105
28.704	2084
28.712	2062
28.72	2040
28.728	2018
28.736	2044
28.744	2093
28.752	2110
28.76	2109
28.768	2101
28.776	2092
28.784	2081
28.792	2073
28.8	2066
28.808	2059
28.816	2056
28.824	2052
28.832	2048
28.84	2046
28.848	2042
28.856	2034
28.864	2027
28.872	2021
28.88	2015
28.888	2009
28.896	2003
28.904	1998
28.912	1990
28.92	1980
28.928	1969
28.936	1961
28.944	1954
28.952	1945
28.96	1936
28.968	1925
28.976	1914
28.984	1905
28.992	1899
29	1888
29.008	1873
29.016	1859.99999999999
29.024	1848
29.032	1837
29.04	1826
29.048	1813.99999999999
29.056	1803
29.064	1796
29.072	1789
29.08	1783
29.088	1780
29.096	1778
29.104	1777
29.112	1777
29.12	1777
29.128	1777
29.136	1777
29.144	1777
29.152	1777
29.16	1777
29.168	1777
29.176	1777
29.184	1777
29.192	1777
29.2	1777
29.208	1777
29.216	1777
29.224	1777
29.232	1777
29.24	1777
29.248	1777
29.256	1777
29.264	1777
29.272	1777
29.28	1777
29.288	1777
29.296	1777
29.304	1777
29.312	1777
29.32	1777
29.328	1777
29.336	1777
29.344	1780
29.352	1789
29.36	1805
29.368	1827.00000000001
29.376	1857
29.384	1894
29.392	1934
29.4	1979.00000000002
29.408	2033
29.416	2091
29.424	2148
29.432	2201.00000000002
29.44	2253
29.448	2304
29.456	2348
29.464	2387.00000000002
29.472	2421
29.48	2443
29.488	2454
29.496	2456
29.504	2452
29.512	2445
29.52	2433
29.528	2415.99999999999
29.536	2393
29.544	2365
29.552	2338
29.56	2306.99999999999
29.568	2272
29.576	2238
29.584	2207
29.592	2177.99999999999
29.6	2152
29.608	2133
29.616	2118
29.624	2107
29.632	2100
29.64	2094
29.648	2091
29.656	2087
29.664	2079
29.672	2069
29.68	2059
29.688	2049
29.696	2038
29.704	2026
29.712	2014
29.72	2003
29.728	1993
29.736	1982
29.744	1970
29.752	1958
29.76	1947
29.768	1934
29.776	1918
29.784	1905
29.792	1894
29.8	1879
29.808	1863
29.816	1850
29.824	1838
29.832	1823
29.84	1808
29.848	1795
29.856	1786
29.864	1778
29.872	1771
29.88	1768
29.888	1766
29.896	1765
29.904	1768
29.912	1772
29.92	1774
29.928	1775
29.936	1776
29.944	1776
29.952	1776
29.96	1776
29.968	1773
29.976	1772
29.984	1774
29.992	1775
30	1776
30.008	1776
30.016	1776
30.024	1776
30.032	1776
30.04	1776
30.048	1776
30.056	1776
30.064	1776
30.072	1776
30.08	1776
30.088	1776
30.096	1776
30.104	1776
30.112	1776
30.12	1776
30.128	1776
30.136	1779
30.144	1784
30.152	1786
30.16	1787
30.168	1790
30.176	1799.00000000001
30.184	1815
30.192	1840
30.2	1875
30.208	1918.00000000002
30.216	1972
30.224	2035
30.232	2100
30.24	2168.00000000003
30.248	2244
30.256	2321
30.264	2391
30.272	2454.00000000003
30.28	2507
30.288	2550
30.296	2585
30.304	2615.00000000001
30.312	2638
30.32	2654
30.328	2665
30.336	2668
30.344	2664
30.352	2651
30.36	2628
30.368	2596.99999999998
30.376	2560
30.384	2521
30.392	2488
30.4	2456.99999999999
30.408	2428
30.416	2405
30.424	2385
30.432	2363.99999999999
30.44	2345
30.448	2328
30.456	2311
30.464	2296.99999999999
30.472	2284
30.48	2271
30.488	2260
30.496	2248.99999999999
30.504	2235
30.512	2219
30.52	2206
30.528	2193.99999999999
30.536	2182
30.544	2170
30.552	2159
30.56	2149
30.568	2138
30.576	2126
30.584	2114
30.592	2103
30.6	2096
30.608	2089
30.616	2083
30.624	2080
30.632	2078
30.64	2077
30.648	2077
30.656	2077
30.664	2074
30.672	2069
30.68	2067
30.688	2066
30.696	2065
30.704	2065
30.712	2065
30.72	2065
30.728	2065
30.736	2065
30.744	2065
30.752	2065
30.76	2065
30.768	2065
30.776	2065
30.784	2028
30.792	1972
30.8	1944
30.808	1930
30.816	1923
30.824	1920
30.832	1918
30.84	1915
30.848	1912
30.856	1907
30.864	1902
30.872	1899
30.88	1896
30.888	1892
30.896	1890
30.904	1887
30.912	1884
30.92	1879
30.928	1874
30.936	1869
30.944	1865
30.952	1861
30.96	1857
30.968	1857
30.976	1859
30.984	1860
30.992	1862
31	1868
31.008	1876
31.016	1884
31.024	1897
31.032	1918
31.04	1943
31.048	1973.00000000001
31.056	2009
31.064	2050
31.072	2093
31.08	2139.00000000002
31.088	2185
31.096	2231
31.104	2273
31.112	2308.00000000001
31.12	2337
31.128	2359
31.136	2372
31.144	2376
31.152	2374
31.16	2366
31.168	2339
31.176	2313.99999999999
31.184	2283
31.192	2235
31.2	2203
31.208	2167.99999999998
31.216	2131
31.224	2078
31.232	2044
31.24	2010.99999999998
31.248	1970
31.256	1948
31.264	1925
31.272	1901.99999999999
31.28	1883
31.288	1867
31.296	1852
31.304	1839.99999999999
31.312	1823
31.32	1810
31.328	1797
31.336	1775.99999999999
31.344	1762
31.352	1746
31.36	1731
31.368	1716.99999999999
31.376	1703
31.384	1691
31.392	1682
31.4	1672
31.408	1667
31.416	1663
31.424	1656
31.432	1650
31.44	1645
31.448	1639
31.456	1634
31.464	1628
31.472	1620
31.48	1614
31.488	1609
31.496	1605
31.504	1600
31.512	1594
31.52	1589
31.528	1583
31.536	1575
31.544	1566
31.552	1557
31.56	1548
31.568	1540
31.576	1534
31.584	1529
31.592	1525
31.6	1521
31.608	1516
31.616	1508
31.624	1502
31.632	1499
31.64	1498
31.648	1497
31.656	1497
31.664	1497
31.672	1497
31.68	1497
31.688	1497
31.696	1497
31.704	1497
31.712	1497
31.72	1497
31.728	1497
31.736	1497
31.744	1497
31.752	1497
31.76	1497
31.768	1497
31.776	1499
31.784	1502
31.792	1506
31.8	1511
31.808	1514
31.816	1517
31.824	1523
31.832	1533
31.84	1548
31.848	1567
31.856	1593
31.864	1624
31.872	1655
31.88	1688
31.888	1723
31.896	1759
31.904	1793
31.912	1824
31.92	1856
31.928	1889
31.936	1917
31.944	1938
31.952	1951
31.96	1958
31.968	1961
31.976	1960
31.984	1952
31.992	1939
32	1923
32.008	1906
32.016	1890
32.024	1875
32.032	1858.99999999999
32.04	1844
32.048	1831
32.056	1820
32.064	1810
32.072	1800
32.08	1790
32.088	1778
32.096	1764.99999999999
32.104	1757
32.112	1751
32.12	1743
32.128	1734
32.136	1725
32.144	1719
32.152	1713
32.16	1707
32.168	1702
32.176	1695
32.184	1687
32.192	1680
32.2	1676
32.208	1674
32.216	1673
32.224	1673
32.232	1673
32.24	1673
32.248	1673
32.256	1673
32.264	1673
32.272	1673
32.28	1673
32.288	1673
32.296	1673
32.304	1673
32.312	1673
32.32	1673
32.328	1673
32.336	1671
32.344	1668
32.352	1666
32.36	1665
32.368	1665
32.376	1667
32.384	1670
32.392	1671
32.4	1672
32.408	1672
32.416	1672
32.424	1672
32.432	1672
32.44	1672
32.448	1672
32.456	1672
32.464	1672
32.472	1672
32.48	1672
32.488	1672
32.496	1672
32.504	1672
32.512	1672
32.52	1672
32.528	1672
32.536	1672
32.544	1672
32.552	1672
32.56	1672
32.568	1672
32.576	1672
32.584	1672
32.592	1672
32.6	1672
32.608	1672
32.616	1672
32.624	1672
32.632	1672
32.64	1672
32.648	1672
32.656	1672
32.664	1675
32.672	1687.00000000001
32.68	1707
32.688	1733
32.696	1764
32.704	1800
32.712	1842
32.72	1886
32.728	1929
32.736	1970.00000000004
32.744	2009
32.752	2046
32.76	2078
32.768	2105
32.776	2128
32.784	2146
32.792	2157
32.8	2180
32.808	2206
32.816	2213
32.824	2209
32.832	2199
32.84	2186
32.848	2169
32.856	2151
32.864	2132
32.872	2112
32.88	2094
32.888	2079
32.896	2068
32.904	2060
32.912	2054
32.92	2049
32.928	2045
32.936	2039
32.944	2034
32.952	2029
32.96	2023
32.968	2018
32.976	2013
32.984	2009
32.992	2005
33	2001
33.008	1997
33.016	1991
33.024	1984
33.032	1975.99999999999
33.04	1968
33.048	1960
33.056	1952
33.064	1946
33.072	1941
33.08	1933
33.088	1922
33.096	1910.99999999999
33.104	1902
33.112	1893
33.12	1885
33.128	1877
33.136	1869
33.144	1861
33.152	1853
33.16	1844.99999999999
33.168	1837
33.176	1829
33.184	1823
33.192	1820
33.2	1818
33.208	1817
33.216	1817
33.224	1817
33.232	1817
33.24	1817
33.248	1817
33.256	1817
33.264	1817
33.272	1817
33.28	1817
33.288	1817
33.296	1817
33.304	1817
33.312	1815
33.32	1812
33.328	1810
33.336	1809
33.344	1811
33.352	1814
33.36	1815
33.368	1816
33.376	1816
33.384	1816
33.392	1816
33.4	1816
33.408	1816
33.416	1816
33.424	1816
33.432	1816
33.44	1816
33.448	1816
33.456	1816
33.464	1816
33.472	1816
33.48	1816
33.488	1818
33.496	1825
33.504	1839
33.512	1860
33.52	1889
33.528	1925
33.536	1965
33.544	2007.00000000004
33.552	2048
33.56	2088
33.568	2128
33.576	2166
33.584	2199
33.592	2228
33.6	2252
33.608	2273.00000000002
33.616	2291
33.624	2302
33.632	2307
33.64	2308
33.648	2303
33.656	2292
33.664	2276
33.672	2257.99999999998
33.68	2237
33.688	2215
33.696	2194
33.704	2175
33.712	2158
33.72	2141
33.728	2125
33.736	2110.99999999999
33.744	2098
33.752	2085
33.76	2075
33.768	2068
33.776	2062
33.784	2055
33.792	2050
33.8	2047
33.808	2044
33.816	2040
33.824	2038
33.832	2035
33.84	2030
33.848	2023
33.856	2018
33.864	2013
33.872	2007
33.88	2000
33.888	1994
33.896	1989
33.904	1983
33.912	1976
33.92	1966
33.928	1955
33.936	1944
33.944	1932
33.952	1919
33.96	1906
33.968	1893
33.976	1881
33.984	1871
33.992	1862
34	1853
34.008	1843
34.016	1832
34.024	1822
34.032	1812.99999999999
34.04	1805
34.048	1799
34.056	1794
34.064	1789
34.072	1785
34.08	1781
34.088	1779
34.096	1780
34.104	1782
34.112	1781
34.12	1779
34.128	1778
34.136	1777
34.144	1775
34.152	1772
34.16	1770
34.168	1771
34.176	1774
34.184	1777
34.192	1781
34.2	1785
34.208	1789
34.216	1793
34.224	1797
34.232	1799
34.24	1800
34.248	1800
34.256	1802
34.264	1807
34.272	1812
34.28	1814
34.288	1815
34.296	1818
34.304	1823
34.312	1830
34.32	1839
34.328	1854
34.336	1876
34.344	1904
34.352	1938.00000000003
34.36	1979
34.368	2024
34.376	2070
34.384	2117
34.392	2165
34.4	2213
34.408	2260
34.416	2300.00000000003
34.424	2332
34.432	2358
34.44	2377
34.448	2389
34.456	2395
34.464	2396
34.472	2392
34.48	2385.99999999999
34.488	2377
34.496	2363
34.504	2346
34.512	2331
34.52	2317
34.528	2301
34.536	2285
34.544	2268.99999999998
34.552	2251
34.56	2232
34.568	2214
34.576	2197
34.584	2181
34.592	2167
34.6	2158
34.608	2153
34.616	2149
34.624	2145
34.632	2143
34.64	2140
34.648	2134
34.656	2125
34.664	2115
34.672	2105.99999999999
34.68	2097
34.688	2089
34.696	2081
34.704	2075
34.712	2072
34.72	2070
34.728	2069
34.736	2069
34.744	2069
34.752	2069
34.76	2069
34.768	2067
34.776	2064
34.784	2060
34.792	2056
34.8	2052
34.808	2048
34.816	2044
34.824	2042
34.832	2043
34.84	2044
34.848	2033
34.856	2014
34.864	2001
34.872	1993
34.88	1984
34.888	1976
34.896	1970
34.904	1965
34.912	1963
34.92	1962
34.928	1963
34.936	1966
34.944	1967
34.952	1971
34.96	1976
34.968	1978
34.976	1979
34.984	1980
34.992	1980
35	1980
35.008	1980
35.016	1980
35.024	1980
35.032	1982
35.04	1985
35.048	1987
35.056	1991
35.064	1996
35.072	2000
35.08	2004
35.088	2006
35.096	2007
35.104	2006
35.112	2003
35.12	2002
35.128	2003
35.136	2009
35.144	2017
35.152	2028
35.16	2043.00000000002
35.168	2066
35.176	2099
35.184	2140
35.192	2185
35.2	2235
35.208	2287
35.216	2338
35.224	2387.00000000004
35.232	2437
35.24	2485
35.248	2526
35.256	2560
35.264	2592
35.272	2616
35.28	2628
35.288	2634
35.296	2634
35.304	2626
35.312	2610
35.32	2588
35.328	2560
35.336	2526
35.344	2489
35.352	2450.99999999997
35.36	2412
35.368	2372
35.376	2333
35.384	2297
35.392	2264
35.4	2232
35.408	2201
35.416	2173.99999999998
35.424	2148
35.432	2123
35.44	2098
35.448	2073
35.456	2054
35.464	2036
35.472	2020
35.48	2006.99999999999
35.488	1993
35.496	1979
35.504	1965
35.512	1950
35.52	1935
35.528	1921
35.536	1906
35.544	1887.99999999998
35.552	1869
35.56	1853
35.568	1838
35.576	1822
35.584	1807
35.592	1791
35.6	1775
35.608	1758.99999999999
35.616	1744
35.624	1734
35.632	1727
35.64	1719
35.648	1712
35.656	1708
35.664	1706
35.672	1703
35.68	1700
35.688	1698
35.696	1694
35.704	1689
35.712	1685
35.72	1681
35.728	1676
35.736	1670
35.744	1665
35.752	1658
35.76	1651
35.768	1646
35.776	1641
35.784	1636
35.792	1630
35.8	1625
35.808	1621
35.816	1619
35.824	1615
35.832	1610
35.84	1605
35.848	1601
35.856	1599
35.864	1596
35.872	1592
35.88	1590
35.888	1586
35.896	1579
35.904	1571
35.912	1564
35.92	1558
35.928	1553
35.936	1553
35.944	1555
35.952	1556
35.96	1559
35.968	1564
35.976	1568
35.984	1575
35.992	1584
36	1595
36.008	1613
36.016	1639
36.024	1672
36.032	1705.00000000003
36.04	1737
36.048	1770
36.056	1805
36.064	1843
36.072	1882
36.08	1921
36.088	1961
36.096	1996.00000000003
36.104	2020
36.112	2036
36.12	2046
36.128	2047
36.136	2041
36.144	2033
36.152	2022
36.16	2007.99999999999
36.168	1993
36.176	1976
36.184	1957
36.192	1941
36.2	1926
36.208	1908
36.216	1892
36.224	1876.99999999999
36.232	1862
36.24	1849
36.248	1836
36.256	1821
36.264	1811
36.272	1804
36.28	1798
36.288	1795
36.296	1792
36.304	1788
36.312	1783
36.32	1776
36.328	1770
36.336	1764
36.344	1756
36.352	1746.99999999999
36.36	1740
36.368	1734
36.376	1729
36.384	1727
36.392	1726
36.4	1725
36.408	1725
36.416	1725
36.424	1725
36.432	1725
36.44	1725
36.448	1725
36.456	1725
36.464	1725
36.472	1725
36.48	1725
36.488	1725
36.496	1725
36.504	1725
36.512	1723
36.52	1720
36.528	1720
36.536	1722
36.544	1723
36.552	1722
36.56	1719
36.568	1718
36.576	1717
36.584	1717
36.592	1717
36.6	1719
36.608	1722
36.616	1723
36.624	1724
36.632	1724
36.64	1724
36.648	1724
36.656	1724
36.664	1724
36.672	1724
36.68	1724
36.688	1724
36.696	1724
36.704	1724
36.712	1724
36.72	1724
36.728	1724
36.736	1724
36.744	1724
36.752	1724
36.76	1724
36.768	1724
36.776	1724
36.784	1724
36.792	1724
36.8	1724
36.808	1724
36.816	1724
36.824	1726
36.832	1734
36.84	1748
36.848	1770
36.856	1798
36.864	1832.00000000003
36.872	1871
36.88	1913
36.888	1959
36.896	1995
36.904	2020
36.912	2044
36.92	2067
36.928	2089
36.936	2108
36.944	2122
36.952	2133
36.96	2141
36.968	2145
36.976	2143
36.984	2135
36.992	2125
37	2111
37.008	2093
37.016	2074
37.024	2054
37.032	2034.99999999999
37.04	2021
37.048	2011
37.056	2002
37.064	1995
37.072	1990
37.08	1985
37.088	1982
37.096	1977
37.104	1973
37.112	1969
37.12	1965
37.128	1962
37.136	1959
37.144	1958
37.152	1955
37.16	1950
37.168	1945
37.176	1941
37.184	1936
37.192	1932
37.2	1928
37.208	1924
37.216	1920
37.224	1913.99999999999
37.232	1908
37.24	1902
37.248	1895
37.256	1888
37.264	1881
37.272	1877
37.28	1873
37.288	1867
37.296	1862
37.304	1858
37.312	1853
37.32	1849
37.328	1845
37.336	1839
37.344	1833
37.352	1826.99999999999
37.36	1820
37.368	1812
37.376	1805
37.384	1799
37.392	1794
37.4	1791
37.408	1790
37.416	1789
37.424	1789
37.432	1789
37.44	1789
37.448	1789
37.456	1789
37.464	1789
37.472	1789
37.48	1789
37.488	1789
37.496	1789
37.504	1789
37.512	1789
37.52	1789
37.528	1789
37.536	1789
37.544	1789
37.552	1789
37.56	1789
37.568	1789
37.576	1789
37.584	1789
37.592	1789
37.6	1789
37.608	1789
37.616	1789
37.624	1789
37.632	1789
37.64	1789
37.648	1791
37.656	1795
37.664	1802
37.672	1814.00000000001
37.68	1832
37.688	1857
37.696	1887
37.704	1921
37.712	1957
37.72	1992
37.728	2027
37.736	2061.00000000003
37.744	2091
37.752	2118
37.76	2142
37.768	2162
37.776	2179
37.784	2195
37.792	2206
37.8	2211
37.808	2213
37.816	2209
37.824	2200
37.832	2186
37.84	2168
37.848	2149
37.856	2130
37.864	2109.99999999998
37.872	2091
37.88	2075
37.888	2060
37.896	2045
37.904	2031
37.912	2019
37.92	2010
37.928	2001
37.936	1995
37.944	1990
37.952	1985
37.96	1983
37.968	1982
37.976	1980
37.984	1978
37.992	1975
38	1970
38.008	1965
38.016	1962
38.024	1959
38.032	1956
38.04	1952
38.048	1948
38.056	1942
38.064	1937
38.072	1934
38.08	1929
38.088	1923
38.096	1915.99999999999
38.104	1909
38.112	1903
38.12	1896
38.128	1890
38.136	1885
38.144	1880
38.152	1874
38.16	1866.99999999999
38.168	1861
38.176	1855
38.184	1848
38.192	1840
38.2	1833
38.208	1827
38.216	1820
38.224	1811.99999999999
38.232	1805
38.24	1799
38.248	1794
38.256	1791
38.264	1789
38.272	1787
38.28	1784
38.288	1778
38.296	1773
38.304	1769
38.312	1767
38.32	1768
38.328	1768
38.336	1770
38.344	1773
38.352	1777
38.36	1781
38.368	1783
38.376	1784
38.384	1784
38.392	1784
38.4	1784
38.408	1784
38.416	1784
38.424	1785
38.432	1787
38.44	1788
38.448	1790
38.456	1793
38.464	1796
38.472	1800
38.48	1806.00000000001
38.488	1813
38.496	1822
38.504	1834
38.512	1854
38.52	1882
38.528	1915
38.536	1951
38.544	1988.00000000003
38.552	2026
38.56	2064
38.568	2101
38.576	2137
38.584	2170
38.592	2197
38.6	2218
38.608	2233.00000000001
38.616	2245
38.624	2253
38.632	2255
38.64	2250
38.648	2240
38.656	2229
38.664	2217
38.672	2203.99999999999
38.68	2188
38.688	2171
38.696	2155
38.704	2137
38.712	2119
38.72	2101
38.728	2083
38.736	2068.99999999999
38.744	2059
38.752	2050
38.76	2042
38.768	2037
38.776	2033
38.784	2027
38.792	2020
38.8	2013
38.808	2009
38.816	2007
38.824	2006
38.832	2005
38.84	2005
38.848	2005
38.856	2005
38.864	2005
38.872	2005
38.88	2005
38.888	2005
38.896	2003
38.904	2000
38.912	1996
38.92	1992
38.928	1988
38.936	1983
38.944	1984
38.952	1988
38.96	1993
38.968	1999
38.976	2005
38.984	2011
38.992	2016
39	2020
39.008	2022
39.016	2021
39.024	2016
39.032	2009.99999999999
39.04	2004
39.048	1998
39.056	1998
39.064	2001
39.072	2003
39.08	2007
39.088	2012
39.096	2014
39.104	2015
39.112	2016
39.12	2016
39.128	2016
39.136	2013
39.144	2009
39.152	2007
39.16	2006
39.168	2005
39.176	2008
39.184	2012
39.192	2016
39.2	2020
39.208	2025
39.216	2031
39.224	2034
39.232	2035
39.24	2036
39.248	2036
39.256	2036
39.264	2036
39.272	2039
39.28	2044
39.288	2048
39.296	2055
39.304	2062
39.312	2070
39.32	2085
39.328	2107
39.336	2136
39.344	2174
39.352	2223.00000000005
39.36	2280
39.368	2340
39.376	2402
39.384	2465
39.392	2529
39.4	2590
39.408	2641
39.416	2683.00000000003
39.424	2717
39.432	2745
39.44	2765
39.448	2775
39.456	2777
39.464	2772
39.472	2758
39.48	2734.99999999998
39.488	2708
39.496	2678
39.504	2645
39.512	2608
39.52	2570
39.528	2532
39.536	2492
39.544	2450.99999999997
39.552	2415
39.56	2386
39.568	2360
39.576	2337
39.584	2318
39.592	2300
39.6	2283
39.608	2266.99999999998
39.616	2248
39.624	2227
39.632	2207
39.64	2184
39.648	2158
39.656	2134
39.664	2112
39.672	2087.99999999998
39.68	2065
39.688	2046
39.696	2028
39.704	2011
39.712	1992
39.72	1971
39.728	1951
39.736	1929.99999999998
39.744	1908
39.752	1889
39.76	1875
39.768	1860
39.776	1844
39.784	1831
39.792	1817
39.8	1801.99999999999
39.808	1786
39.816	1767
39.824	1747
39.832	1730
39.84	1716
39.848	1703
39.856	1692
39.864	1680.99999999999
39.872	1673
39.88	1666
39.888	1657
39.896	1651
39.904	1645
39.912	1636
39.92	1628
39.928	1624
39.936	1620
39.944	1616
39.952	1614
39.96	1613
39.968	1613
39.976	1610
39.984	1605
39.992	1603
40	1599
40.008	1594
40.016	1591
40.024	1590
40.032	1589
40.04	1589
40.048	1589
40.056	1589
40.064	1587
40.072	1584
40.08	1582
40.088	1578
40.096	1573
40.104	1571
40.112	1570
40.12	1569
40.128	1569
40.136	1569
40.144	1572
40.152	1576
40.16	1583.00000000001
40.168	1597
40.176	1617
40.184	1643
40.192	1672
40.2	1705
40.208	1741
40.216	1777
40.224	1819.00000000004
40.232	1864
40.24	1907
40.248	1948
40.256	1984
40.264	2015
40.272	2039
40.28	2057
40.288	2069
40.296	2072
40.304	2067
40.312	2057
40.32	2044
40.328	2029
40.336	2014
40.344	1998
40.352	1979.99999999998
40.36	1960
40.368	1939
40.376	1921
40.384	1907
40.392	1895
40.4	1883
40.408	1872
40.416	1863.99999999999
40.424	1857
40.432	1848
40.44	1838
40.448	1828
40.456	1817
40.464	1809
40.472	1805
40.48	1801
40.488	1797
40.496	1792
40.504	1783
40.512	1771
40.52	1757
40.528	1745
40.536	1737
40.544	1729.99999999999
40.552	1721
40.56	1715
40.568	1709
40.576	1703
40.584	1700
40.592	1698
40.6	1697
40.608	1697
40.616	1697
40.624	1697
40.632	1697
40.64	1697
40.648	1697
40.656	1697
40.664	1697
40.672	1697
40.68	1697
40.688	1697
40.696	1697
40.704	1697
40.712	1697
40.72	1694
40.728	1689
40.736	1687
40.744	1689
40.752	1693
40.76	1695
40.768	1696
40.776	1696
40.784	1696
40.792	1696
40.8	1696
40.808	1696
40.816	1699
40.824	1704
40.832	1706
40.84	1707
40.848	1708
40.856	1708
40.864	1708
40.872	1708
40.88	1708
40.888	1708
40.896	1708
40.904	1708
40.912	1708
40.92	1708
40.928	1708
40.936	1708
40.944	1708
40.952	1708
40.96	1708
40.968	1708
40.976	1708
40.984	1708
40.992	1720
41	1740
41.008	1755
41.016	1772
41.024	1792
41.032	1817.00000000002
41.04	1847
41.048	1879
41.056	1912
41.064	1944
41.072	1973
41.08	1998
41.088	2021
41.096	2044.00000000002
41.104	2061
41.112	2075
41.12	2086
41.128	2091
41.136	2094
41.144	2091
41.152	2085
41.16	2075.99999999999
41.168	2062
41.176	2046
41.184	2028
41.192	2009
41.2	1992
41.208	1976
41.216	1963
41.224	1953.99999999999
41.232	1944
41.24	1934
41.248	1927
41.256	1922
41.264	1917
41.272	1915
41.28	1914
41.288	1913
41.296	1911
41.304	1908
41.312	1905
41.32	1901
41.328	1897
41.336	1893
41.344	1889
41.352	1887
41.36	1885
41.368	1881
41.376	1877
41.384	1873
41.392	1868
41.4	1862
41.408	1857
41.416	1855
41.424	1852
41.432	1848
41.44	1845
41.448	1841
41.456	1834
41.464	1825
41.472	1817
41.48	1809.99999999999
41.488	1803
41.496	1796
41.504	1787
41.512	1781
41.52	1773
41.528	1759
41.536	1756
41.544	1754
41.552	1753
41.56	1753
41.568	1753
41.576	1753
41.584	1753
41.592	1753
41.6	1753
41.608	1753
41.616	1753
41.624	1753
41.632	1753
41.64	1753
41.648	1753
41.656	1753
41.664	1753
41.672	1753
41.68	1753
41.688	1753
41.696	1753
41.704	1751
41.712	1748
41.72	1746
41.728	1745
41.736	1748
41.744	1751
41.752	1754
41.76	1760
41.768	1762
41.776	1765
41.784	1770
41.792	1775
41.8	1784.00000000001
41.808	1797
41.816	1814
41.824	1835
41.832	1862
41.84	1894
41.848	1929
41.856	1963
41.864	1997.00000000003
41.872	2030
41.88	2059
41.888	2085
41.896	2108
41.904	2128
41.912	2143
41.92	2154
41.928	2161
41.936	2163
41.944	2161
41.952	2155
41.96	2145
41.968	2132
41.976	2117
41.984	2102
41.992	2085
42	2068
42.008	2051
42.016	2036
42.024	2019
42.032	2002.99999999999
42.04	1989
42.048	1977
42.056	1967
42.064	1959
42.072	1954
42.08	1949
42.088	1945
42.096	1943
42.104	1940
42.112	1936
42.12	1934
42.128	1933
42.136	1932
42.144	1930
42.152	1927
42.16	1921.99999999999
42.168	1915
42.176	1910
42.184	1906
42.192	1901
42.2	1897
42.208	1893
42.216	1888
42.224	1882
42.232	1877
42.24	1873
42.248	1868
42.256	1862
42.264	1855
42.272	1850
42.28	1846
42.288	1841
42.296	1837
42.304	1833
42.312	1828
42.32	1822
42.328	1815
42.336	1809
42.344	1803
42.352	1795.99999999999
42.36	1788
42.368	1781
42.376	1775
42.384	1770
42.392	1764
42.4	1758
42.408	1755
42.416	1752
42.424	1748
42.432	1746
42.44	1745
42.448	1745
42.456	1745
42.464	1745
42.472	1744
42.48	1742
42.488	1741
42.496	1741
42.504	1741
42.512	1741
42.52	1739
42.528	1736
42.536	1734
42.544	1733
42.552	1733
42.56	1735
42.568	1739
42.576	1744
42.584	1748
42.592	1750
42.6	1751
42.608	1752
42.616	1752
42.624	1755
42.632	1763
42.64	1776
42.648	1793
42.656	1815
42.664	1844
42.672	1878.00000000003
42.68	1914
42.688	1949
42.696	1983
42.704	2017
42.712	2050
42.72	2079
42.728	2105
42.736	2127.00000000002
42.744	2145
42.752	2159
42.76	2168
42.768	2170
42.776	2169
42.784	2166
42.792	2157
42.8	2145.99999999999
42.808	2132
42.816	2117
42.824	2102
42.832	2084
42.84	2066
42.848	2050
42.856	2035
42.864	2020.99999999999
42.872	2008
42.88	1994
42.888	1980
42.896	1970
42.904	1963
42.912	1958
42.92	1954
42.928	1951
42.936	1950
42.944	1949
42.952	1949
42.96	1949
42.968	1949
42.976	1950
42.984	1951
42.992	1952
43	1952
43.008	1976
43.016	2008
43.024	2020
43.032	2023
43.04	2022
43.048	2018
43.056	2013
43.064	2011
43.072	2010
43.08	2012
43.088	2016
43.096	2021
43.104	2027
43.112	2030
43.12	2028
43.128	2024
43.136	2019
43.144	2014
43.152	2011
43.16	2010
43.168	2012
43.176	2019
43.184	2026
43.192	2033
43.2	2041
43.208	2045
43.216	2047
43.224	2048
43.232	2048
43.24	2044
43.248	2038
43.256	2035
43.264	2034
43.272	2033
43.28	2033
43.288	2037.00000000001
43.296	2046
43.304	2053
43.312	2057
43.32	2059
43.328	2060
43.336	2060
43.344	2057
43.352	2048.99999999999
43.36	2041
43.368	2037
43.376	2035
43.384	2038
43.392	2043
43.4	2049
43.408	2055
43.416	2058
43.424	2059
43.432	2060
43.44	2060
43.448	2067
43.456	2085
43.464	2111
43.472	2151
43.48	2205.00000000005
43.488	2273
43.496	2354
43.504	2441
43.512	2533
43.52	2623
43.528	2709
43.536	2790
43.544	2860.00000000006
43.552	2918
43.56	2964
43.568	3001
43.576	3030
43.584	3047
43.592	3056
43.6	3054
43.608	3039.99999999998
43.616	3016
43.624	2980
43.632	2938
43.64	2893
43.648	2844
43.656	2796
43.664	2748
43.672	2695.99999999995
43.68	2643
43.688	2594
43.696	2548
43.704	2508
43.712	2478
43.72	2452
43.728	2429
43.736	2407.99999999998
43.744	2383
43.752	2361
43.76	2340
43.768	2316
43.776	2294
43.784	2276
43.792	2260
43.8	2241.99999999998
43.808	2220
43.816	2198
43.824	2177
43.832	2150
43.84	2122
43.848	2098
43.856	2076
43.864	2057.99999999999
43.872	2045
43.88	2036
43.888	2025
43.896	2013
43.904	2000
43.912	1983
43.92	1965
43.928	1945.99999999998
43.936	1922
43.944	1896
43.952	1873
43.96	1852
43.968	1827
43.976	1805
43.984	1784
43.992	1762.99999999998
44	1746
44.008	1727
44.016	1705
44.024	1680
44.032	1659.99999999999
44.04	1647
44.048	1634
44.056	1623
44.064	1615
44.072	1608
44.08	1604
44.088	1602
44.096	1601
44.104	1598
44.112	1593
44.12	1591
44.128	1586
44.136	1579
44.144	1576
44.152	1574
44.16	1570
44.168	1565
44.176	1563
44.184	1558
44.192	1551
44.2	1545
44.208	1539
44.216	1536
44.224	1534
44.232	1530
44.24	1525
44.248	1523
44.256	1522
44.264	1524
44.272	1528
44.28	1530
44.288	1534.00000000001
44.296	1546
44.304	1566
44.312	1590
44.32	1615
44.328	1645
44.336	1681
44.344	1722
44.352	1769.00000000004
44.36	1820
44.368	1872
44.376	1926
44.384	1980
44.392	2024
44.4	2053
44.408	2074
44.416	2087.00000000001
44.424	2091
44.432	2087
44.44	2078
44.448	2066
44.456	2050
44.464	2028
44.472	2000
44.48	1968.99999999997
44.488	1940
44.496	1908
44.504	1879
44.512	1855
44.52	1833
44.528	1815
44.536	1796
44.544	1775.99999999998
44.552	1759
44.56	1744
44.568	1729
44.576	1719
44.584	1711
44.592	1700
44.6	1687
44.608	1673.99999999999
44.616	1663
44.624	1655
44.632	1648
44.64	1644
44.648	1642
44.656	1641
44.664	1641
44.672	1641
44.68	1641
44.688	1641
44.696	1638
44.704	1633
44.712	1627
44.72	1620
44.728	1616
44.736	1611
44.744	1606
44.752	1603
44.76	1602
44.768	1601
44.776	1601
44.784	1601
44.792	1601
44.8	1598
44.808	1593
44.816	1591
44.824	1590
44.832	1589
44.84	1589
44.848	1589
44.856	1589
44.864	1589
44.872	1589
44.88	1589
44.888	1589
44.896	1592
44.904	1596
44.912	1598
44.92	1602
44.928	1607
44.936	1610
44.944	1615
44.952	1622
44.96	1628
44.968	1634
44.976	1637
44.984	1639
44.992	1640
45	1640
45.008	1640
45.016	1640
45.024	1640
45.032	1640
45.04	1640
45.048	1640
45.056	1648
45.064	1660
45.072	1666
45.08	1669
45.088	1671
45.096	1672
45.104	1672
45.112	1672
45.12	1672
45.128	1673
45.136	1677
45.144	1685
45.152	1699
45.16	1720.00000000002
45.168	1746
45.176	1777
45.184	1813
45.192	1850
45.2	1883
45.208	1912
45.216	1938
45.224	1961.00000000002
45.232	1981
45.24	1999
45.248	2014
45.256	2025
45.264	2031
45.272	2032
45.28	2028
45.288	2017.99999999999
45.296	2005
45.304	1989
45.312	1969
45.32	1949
45.328	1931
45.336	1916
45.344	1903
45.352	1891.99999999999
45.36	1882
45.368	1873
45.376	1865
45.384	1857
45.392	1849
45.4	1841
45.408	1835
45.416	1829.99999999999
45.424	1823
45.432	1816
45.44	1808
45.448	1802
45.456	1797
45.464	1793
45.472	1791
45.48	1788
45.488	1784
45.496	1780
45.504	1774
45.512	1767
45.52	1760
45.528	1752
45.536	1744
45.544	1735.99999999999
45.552	1730
45.56	1725
45.568	1719
45.576	1712
45.584	1704
45.592	1696
45.6	1688
45.608	1682
45.616	1678
45.624	1675
45.632	1674
45.64	1673
45.648	1673
45.656	1673
45.664	1673
45.672	1673
45.68	1673
45.688	1673
45.696	1673
45.704	1673
45.712	1673
45.72	1673
45.728	1673
45.736	1673
45.744	1673
45.752	1673
45.76	1673
45.768	1673
45.776	1673
45.784	1673
45.792	1673
45.8	1673
45.808	1673
45.816	1671
45.824	1670
45.832	1671
45.84	1672
45.848	1672
45.856	1672
45.864	1672
45.872	1672
45.88	1672
45.888	1672
45.896	1672
45.904	1672
45.912	1672
45.92	1673
45.928	1675
45.936	1676
45.944	1678
45.952	1681
45.96	1685
45.968	1693
45.976	1707
45.984	1728
45.992	1756.00000000003
46	1790
46.008	1829
46.016	1868
46.024	1902
46.032	1935.00000000003
46.04	1970
46.048	2003
46.056	2034.00000000003
46.064	2063
46.072	2089
46.08	2109
46.088	2123
46.096	2132
46.104	2134
46.112	2129
46.12	2120
46.128	2108
46.136	2092
46.144	2072
46.152	2050
46.16	2026.99999999998
46.168	2004
46.176	1980
46.184	1958
46.192	1939
46.2	1924
46.208	1912
46.216	1903
46.224	1895.99999999999
46.232	1888
46.24	1882
46.248	1877
46.256	1873
46.264	1869
46.272	1863
46.28	1856
46.288	1850
46.296	1845
46.304	1839
46.312	1834
46.32	1829
46.328	1823
46.336	1816
46.344	1808
46.352	1799.99999999999
46.36	1792
46.368	1784
46.376	1778
46.384	1773
46.392	1767
46.4	1760
46.408	1754
46.416	1749
46.424	1743
46.432	1736
46.44	1728
46.448	1720
46.456	1712
46.464	1704
46.472	1696
46.48	1687.99999999999
46.488	1681
46.496	1677
46.504	1675
46.512	1674
46.52	1673
46.528	1673
46.536	1673
46.544	1673
46.552	1673
46.56	1671
46.568	1668
46.576	1664
46.584	1660
46.592	1660
46.6	1662
46.608	1663
46.616	1664
46.624	1664
46.632	1664
46.64	1666
46.648	1669
46.656	1671
46.664	1672
46.672	1672
46.68	1672
46.688	1672
46.696	1672
46.704	1672
46.712	1672
46.72	1672
46.728	1672
46.736	1672
46.744	1672
46.752	1672
46.76	1672
46.768	1672
46.776	1672
46.784	1672
46.792	1673
46.8	1679.00000000001
46.808	1692
46.816	1710
46.824	1735
46.832	1768
46.84	1804
46.848	1843
46.856	1882
46.864	1919.00000000003
46.872	1956
46.88	1990
46.888	2023
46.896	2054
46.904	2079
46.912	2099
46.92	2114
46.928	2123
46.936	2126
46.944	2123
46.952	2117
46.96	2107
46.968	2092
46.976	2072
46.984	2052
46.992	2031.99999999998
47	2012
47.008	1992
47.016	1972
47.024	1954
47.032	1936.99999999999
47.04	1923
47.048	1912
47.056	1903.99999999999
47.064	1899
47.072	1892
47.08	1884
47.088	1878
47.096	1871
47.104	1895
47.112	1936
47.12	1956
47.128	1966
47.136	1967
47.144	1964
47.152	1958
47.16	1947.99999999999
47.168	1936
47.176	1923
47.184	1910
47.192	1899
47.2	1890
47.208	1878
47.216	1865
47.224	1854.99999999999
47.232	1847
47.24	1836
47.248	1826
47.256	1821
47.264	1819
47.272	1814
47.28	1807
47.288	1804
47.296	1802
47.304	1801
47.312	1801
47.32	1801
47.328	1801
47.336	1801
47.344	1801
47.352	1801
47.36	1801
47.368	1801
47.376	1801
47.384	1801
47.392	1801
47.4	1801
47.408	1801
47.416	1801
47.424	1801
47.432	1801
47.44	1801
47.448	1801
47.456	1805
47.464	1811
47.472	1818
47.48	1825.00000000001
47.488	1832
47.496	1838
47.504	1845
47.512	1853
47.52	1857
47.528	1859
47.536	1860
47.544	1856
47.552	1850
47.56	1847
47.568	1850
47.576	1855
47.584	1861
47.592	1871
47.6	1884
47.608	1901.00000000002
47.616	1928
47.624	1966
47.632	2014
47.64	2067
47.648	2130
47.656	2204
47.664	2284
47.672	2368.00000000008
47.68	2453
47.688	2539
47.696	2622
47.704	2699
47.712	2774
47.72	2844
47.728	2901
47.736	2944.00000000003
47.744	2972
47.752	2986
47.76	2990
47.768	2985
47.776	2975
47.784	2959
47.792	2937
47.8	2911.99999999998
47.808	2884
47.816	2852
47.824	2811
47.832	2765
47.84	2721
47.848	2678
47.856	2634
47.864	2589.99999999996
47.872	2553
47.88	2528
47.888	2508
47.896	2491
47.904	2476
47.912	2460
47.92	2445
47.928	2430.99999999999
47.936	2416
47.944	2401
47.952	2384
47.96	2364
47.968	2343
47.976	2319
47.984	2296
47.992	2272.99999999998
48	2251
48.008	2229
48.016	2204
48.024	2176
48.032	2146.99999999997
48.04	2119
48.048	2091
48.056	2065.99999999998
48.064	2046
48.072	2029
48.08	2013
48.088	1998
48.096	1982.99999999999
48.104	1968
48.112	1953
48.12	1935.99999999998
48.128	1916
48.136	1898
48.144	1885
48.152	1876
48.16	1863.99999999999
48.168	1851
48.176	1838
48.184	1820
48.192	1800
48.2	1779
48.208	1755
48.216	1732
48.224	1708.99999999998
48.232	1684
48.24	1660
48.248	1641
48.256	1629
48.264	1619
48.272	1610
48.28	1605
48.288	1603
48.296	1602
48.304	1601
48.312	1597
48.32	1591
48.328	1585
48.336	1575
48.344	1563
48.352	1553.99999999999
48.36	1545
48.368	1537
48.376	1533
48.384	1531
48.392	1526
48.4	1519
48.408	1516
48.416	1514
48.424	1513
48.432	1513
48.44	1513
48.448	1513
48.456	1517
48.464	1527
48.472	1543
48.48	1569.00000000003
48.488	1603
48.496	1641
48.504	1682
48.512	1727
48.52	1782
48.528	1842
48.536	1901
48.544	1960.00000000005
48.552	2011
48.56	2048
48.568	2073
48.576	2089
48.584	2097
48.592	2098
48.6	2091
48.608	2083.99999999999
48.616	2076
48.624	2061
48.632	2044
48.64	2021
48.648	1991
48.656	1958
48.664	1920
48.672	1878.99999999996
48.68	1837
48.688	1798
48.696	1764
48.704	1732
48.712	1701
48.72	1676
48.728	1656
48.736	1641.99999999999
48.744	1632
48.752	1624
48.76	1620
48.768	1618
48.776	1617
48.784	1617
48.792	1617
48.8	1617
48.808	1620
48.816	1624
48.824	1626
48.832	1627
48.84	1628
48.848	1628
48.856	1628
48.864	1628
48.872	1628
48.88	1628
48.888	1628
48.896	1628
48.904	1628
48.912	1628
48.92	1628
48.928	1625
48.936	1621
48.944	1615
48.952	1608
48.96	1604
48.968	1602
48.976	1601
48.984	1597
48.992	1590.99999999999
49	1585
49.008	1575
49.016	1566
49.024	1558
49.032	1546.99999999999
49.04	1538
49.048	1529
49.056	1520.99999999999
49.064	1514
49.072	1507
49.08	1504
49.088	1502
49.096	1501
49.104	1501
49.112	1497
49.12	1491
49.128	1488
49.136	1486
49.144	1485
49.152	1516
49.16	1562.00000000003
49.168	1585
49.176	1597
49.184	1603
49.192	1606
49.2	1607
49.208	1608
49.216	1608
49.224	1608
49.232	1610
49.24	1613
49.248	1618
49.256	1625
49.264	1631
49.272	1636
49.28	1642
49.288	1649.00000000001
49.296	1657
49.304	1667
49.312	1681
49.32	1699
49.328	1720
49.336	1745
49.344	1773
49.352	1802.00000000003
49.36	1833
49.368	1866
49.376	1899
49.384	1929
49.392	1955
49.4	1978
49.408	1995
49.416	2009.00000000001
49.424	2021
49.432	2029
49.44	2031
49.448	2025
49.456	2013
49.464	1997
49.472	1978
49.48	1958.99999999998
49.488	1942
49.496	1925
49.504	1910
49.512	1895
49.52	1880
49.528	1866
49.536	1855
49.544	1845.99999999999
49.552	1836
49.56	1826
49.568	1819
49.576	1814
49.584	1807
49.592	1802
49.6	1797
49.608	1791
49.616	1786
49.624	1781
49.632	1777
49.64	1772
49.648	1764
49.656	1756
49.664	1748
49.672	1739.99999999999
49.68	1732
49.688	1724
49.696	1718
49.704	1713
49.712	1706
49.72	1697
49.728	1691
49.736	1688
49.744	1686
49.752	1685
49.76	1685
49.768	1685
49.776	1685
49.784	1685
49.792	1685
49.8	1685
49.808	1685
49.816	1685
49.824	1683
49.832	1680
49.84	1680
49.848	1682
49.856	1683
49.864	1684
49.872	1684
49.88	1682
49.888	1679
49.896	1676
49.904	1672
49.912	1670
49.92	1669
49.928	1669
49.936	1669
49.944	1669
49.952	1669
49.96	1667
49.968	1664
49.976	1662
49.984	1661
49.992	1663
50	1666
50.008	1667
50.016	1668
50.024	1668
50.032	1668
50.04	1666
50.048	1663
50.056	1662
50.064	1663
50.072	1666
50.08	1669
50.088	1673
50.096	1677
50.104	1681
50.112	1683
50.12	1684
50.128	1686
50.136	1692
50.144	1704
50.152	1722
50.16	1746.00000000002
50.168	1775
50.176	1809
50.184	1848
50.192	1888
50.2	1927
50.208	1962
50.216	1994
50.224	2025.00000000003
50.232	2054
50.24	2079
50.248	2100
50.256	2116
50.264	2128
50.272	2134
50.28	2133
50.288	2128.99999999999
50.296	2119
50.304	2103
50.312	2084
50.32	2062
50.328	2038
50.336	2013
50.344	1991
50.352	1970.99999999998
50.36	1954
50.368	1941
50.376	1931
50.384	1922
50.392	1913
50.4	1904
50.408	1894
50.416	1884.99999999999
50.424	1877
50.432	1869
50.44	1863
50.448	1858
50.456	1851
50.464	1846
50.472	1841
50.48	1837
50.488	1832
50.496	1824
50.504	1816
50.512	1808
50.52	1800
50.528	1790
50.536	1778
50.544	1766.99999999999
50.552	1756
50.56	1744
50.568	1736
50.576	1730
50.584	1723
50.592	1718
50.6	1713
50.608	1705.99999999999
50.616	1697
50.624	1691
50.632	1688
50.64	1686
50.648	1685
50.656	1685
50.664	1685
50.672	1685
50.68	1685
50.688	1685
50.696	1685
50.704	1685
50.712	1685
50.72	1685
50.728	1685
50.736	1685
50.744	1685
50.752	1685
50.76	1685
50.768	1685
50.776	1685
50.784	1685
50.792	1685
50.8	1685
50.808	1685
50.816	1685
50.824	1685
50.832	1685
50.84	1685
50.848	1685
50.856	1685
50.864	1683
50.872	1680
50.88	1678
50.888	1677
50.896	1677
50.904	1679
50.912	1682
50.92	1683
50.928	1684
50.936	1684
50.944	1684
50.952	1684
50.96	1686
50.968	1692
50.976	1704
50.984	1722
50.992	1746.00000000002
51	1775
51.008	1811
51.016	1853
51.024	1896
51.032	1936.00000000003
51.04	1973
51.048	2009
51.056	2042.00000000003
51.064	2071
51.072	2096
51.08	2116
51.088	2133
51.096	2147.00000000001
51.104	2154
51.112	2152
51.12	2143.99999999999
51.128	2130
51.136	2110
51.144	2085
51.152	2058
51.16	2028.99999999997
51.168	2001
51.176	1976
51.184	1955.99999999999
51.192	1942
51.2	1973
51.208	2025
51.216	2044
51.224	2043
51.232	2029
51.24	2008
51.248	1983
51.256	1961
51.264	1947
51.272	1936
51.28	1930
51.288	1931
51.296	1932
51.304	1932
51.312	1928
51.32	1919
51.328	1908
51.336	1891
51.344	1873
51.352	1857.99999999999
51.36	1843
51.368	1829
51.376	1815
51.384	1801
51.392	1787
51.4	1776
51.408	1767
51.416	1755.99999999999
51.424	1743
51.432	1734
51.44	1726
51.448	1719
51.456	1716
51.464	1714
51.472	1713
51.48	1716
51.488	1720
51.496	1722
51.504	1723
51.512	1724
51.52	1724
51.528	1724
51.536	1724
51.544	1724
51.552	1724
51.56	1724
51.568	1724
51.576	1724
51.584	1724
51.592	1724
51.6	1724
51.608	1724
51.616	1724
51.624	1724
51.632	1724
51.64	1724
51.648	1724
51.656	1727
51.664	1736
51.672	1744.00000000001
51.68	1751
51.688	1762
51.696	1771
51.704	1776
51.712	1778
51.72	1779
51.728	1780
51.736	1781
51.744	1785
51.752	1792
51.76	1824
51.768	1849
51.776	1880
51.784	1942
51.792	1998
51.8	2061.00000000006
51.808	2128
51.816	2202
51.824	2280
51.832	2364
51.84	2451
51.848	2570
51.856	2643
51.864	2712.00000000007
51.872	2803
51.88	2849
51.888	2883
51.896	2904
51.904	2910
51.912	2902
51.92	2885
51.928	2859.99999999997
51.936	2826
51.944	2789
51.952	2750
51.96	2709
51.968	2665
51.976	2622
51.984	2586
51.992	2550.99999999997
52	2517
52.008	2486
52.016	2453
52.024	2423
52.032	2397.99999999998
52.04	2379
52.048	2366
52.056	2354.99999999999
52.064	2350
52.072	2344
52.08	2338
52.088	2331
52.096	2320.99999999999
52.104	2309
52.112	2292
52.12	2272.99999999998
52.128	2254
52.136	2234
52.144	2214
52.152	2193
52.16	2175.99999999999
52.168	2164
52.176	2158
52.184	2155
52.192	2154
52.2	2153
52.208	2149
52.216	2140
52.224	2127.99999999999
52.232	2112
52.24	2094
52.248	2081
52.256	2072
52.264	2064
52.272	2060
52.28	2054
52.288	2046.99999999999
52.296	2041
52.304	2031
52.312	2019
52.32	2006
52.328	1992
52.336	1979
52.344	1970
52.352	1960.99999999999
52.36	1950
52.368	1937
52.376	1924
52.384	1910
52.392	1896
52.4	1882
52.408	1871
52.416	1862.99999999999
52.424	1853
52.432	1845
52.44	1837
52.448	1826
52.456	1813
52.464	1796
52.472	1777
52.48	1760.99999999999
52.488	1746
52.496	1735
52.504	1730
52.512	1727
52.52	1726
52.528	1725
52.536	1725
52.544	1725
52.552	1725
52.56	1725
52.568	1725
52.576	1725
52.584	1725
52.592	1725
52.6	1728
52.608	1736.00000000001
52.616	1747
52.624	1767
52.632	1798
52.64	1837
52.648	1885
52.656	1936
52.664	1992
52.672	2051.00000000005
52.68	2101
52.688	2144
52.696	2179
52.704	2207
52.712	2231
52.72	2246
52.728	2253
52.736	2254
52.744	2244
52.752	2225
52.76	2199
52.768	2169
52.776	2140
52.784	2108
52.792	2071
52.8	2031.99999999996
52.808	1992
52.816	1951
52.824	1910
52.832	1869
52.84	1832
52.848	1795
52.856	1763
52.864	1740.99999999998
52.872	1723
52.88	1710
52.888	1700
52.896	1692
52.904	1688
52.912	1682
52.92	1675
52.928	1672
52.936	1670
52.944	1666
52.952	1661
52.96	1656
52.968	1646
52.976	1637
52.984	1630
52.992	1623
53	1620
53.008	1614
53.016	1607
53.024	1601
53.032	1590.99999999999
53.04	1579
53.048	1566
53.056	1554.99999999999
53.064	1547
53.072	1540
53.08	1536
53.088	1534
53.096	1533
53.104	1533
53.112	1530
53.12	1525
53.128	1523
53.136	1522
53.144	1521
53.152	1521
53.16	1517
53.168	1511
53.176	1505
53.184	1494.99999999999
53.192	1486
53.2	1481
53.208	1479
53.216	1525
53.224	1595.00000000004
53.232	1628
53.24	1642
53.248	1649
53.256	1653
53.264	1655
53.272	1654
53.28	1651
53.288	1650
53.296	1649
53.304	1649
53.312	1648
53.32	1646
53.328	1643
53.336	1640
53.344	1638
53.352	1637
53.36	1637
53.368	1637
53.376	1637
53.384	1639
53.392	1642
53.4	1644
53.408	1646
53.416	1649
53.424	1653
53.432	1659
53.44	1668
53.448	1677
53.456	1691
53.464	1711
53.472	1736
53.48	1761.00000000002
53.488	1786
53.496	1812
53.504	1840
53.512	1869
53.52	1898
53.528	1925
53.536	1950
53.544	1971.00000000002
53.552	1990
53.56	2004
53.568	2012
53.576	2016
53.584	2018
53.592	2018
53.6	2015
53.608	2007.99999999999
53.616	1996
53.624	1983
53.632	1970
53.64	1955
53.648	1941
53.656	1929
53.664	1917
53.672	1905.99999999999
53.68	1895
53.688	1884
53.696	1874
53.704	1865
53.712	1858
53.72	1853
53.728	1849
53.736	1845
53.744	1841
53.752	1835
53.76	1828
53.768	1820
53.776	1813
53.784	1807
53.792	1802
53.8	1799
53.808	1798
53.816	1797
53.824	1797
53.832	1797
53.84	1797
53.848	1797
53.856	1797
53.864	1795
53.872	1792
53.88	1790
53.888	1789
53.896	1789
53.904	1791
53.912	1794
53.92	1795
53.928	1794
53.936	1791
53.944	1790
53.952	1789
53.96	1789
53.968	1789
53.976	1789
53.984	1789
53.992	1789
54	1789
54.008	1789
54.016	1789
54.024	1789
54.032	1789
54.04	1789
54.048	1789
54.056	1791
54.064	1794
54.072	1795
54.08	1796
54.088	1794
54.096	1791
54.104	1790
54.112	1789
54.12	1789
54.128	1789
54.136	1789
54.144	1789
54.152	1791
54.16	1794
54.168	1795
54.176	1796
54.184	1796
54.192	1796
54.2	1796
54.208	1796
54.216	1796
54.224	1796
54.232	1796
54.24	1796
54.248	1796
54.256	1796
54.264	1796
54.272	1798
54.28	1802
54.288	1811.00000000001
54.296	1827
54.304	1848
54.312	1875
54.32	1907
54.328	1943
54.336	1979
54.344	2012
54.352	2043.00000000003
54.36	2071
54.368	2094
54.376	2113
54.384	2130
54.392	2143
54.4	2154
54.408	2161
54.416	2163
54.424	2160
54.432	2153
54.44	2143
54.448	2129
54.456	2113
54.464	2095
54.472	2077
54.48	2058.99999999998
54.488	2042
54.496	2030
54.504	2021
54.512	2013
54.52	2003
54.528	1992
54.536	1983
54.544	1975.99999999999
54.552	1970
54.56	1965
54.568	1961
54.576	1959
54.584	1956
54.592	1952
54.6	1948
54.608	1944
54.616	1940
54.624	1936
54.632	1931
54.64	1924
54.648	1916
54.656	1908
54.664	1899
54.672	1889.99999999999
54.68	1881
54.688	1873
54.696	1865
54.704	1858
54.712	1851
54.72	1844
54.728	1834
54.736	1822.99999999999
54.744	1815
54.752	1808
54.76	1802
54.768	1799
54.776	1798
54.784	1797
54.792	1797
54.8	1797
54.808	1797
54.816	1797
54.824	1795
54.832	1792
54.84	1790
54.848	1789
54.856	1791
54.864	1794
54.872	1795
54.88	1796
54.888	1794
54.896	1791
54.904	1790
54.912	1789
54.92	1789
54.928	1789
54.936	1787
54.944	1786
54.952	1787
54.96	1788
54.968	1790
54.976	1793
54.984	1795
54.992	1796
55	1796
55.008	1796
55.016	1796
55.024	1796
55.032	1796
55.04	1796
55.048	1796
55.056	1796
55.064	1796
55.072	1796
55.08	1796
55.088	1796
55.096	1798
55.104	1802
55.112	1809
55.12	1821.00000000001
55.128	1838
55.136	1862
55.144	1892
55.152	1925
55.16	1962.00000000003
55.168	1999
55.176	2035
55.184	2067.00000000003
55.192	2096
55.2	2123
55.208	2148
55.216	2169
55.224	2187.00000000001
55.232	2202
55.24	2211
55.248	2214
55.256	2211
55.264	2255
55.272	2317
55.28	2336
55.288	2333
55.296	2320
55.304	2301
55.312	2278
55.32	2252
55.328	2225
55.336	2200
55.344	2179
55.352	2161.99999999999
55.36	2146
55.368	2133
55.376	2122
55.384	2113
55.392	2107
55.4	2102
55.408	2097
55.416	2089.99999999999
55.424	2081
55.432	2070
55.44	2054
55.448	2039
55.456	2027
55.464	2016
55.472	2008
55.48	2004
55.488	2000
55.496	1993
55.504	1985
55.512	1976
55.52	1964
55.528	1949
55.536	1934
55.544	1918.99999999999
55.552	1905
55.56	1893
55.568	1885
55.576	1881
55.584	1879
55.592	1878
55.6	1877
55.608	1877
55.616	1877
55.624	1875
55.632	1872
55.64	1867
55.648	1862
55.656	1859
55.664	1858
55.672	1857
55.68	1857
55.688	1860
55.696	1864
55.704	1868
55.712	1872
55.72	1874
55.728	1875
55.736	1876
55.744	1876
55.752	1874
55.76	1871
55.768	1870
55.776	1869
55.784	1869
55.792	1871
55.8	1874
55.808	1877
55.816	1881
55.824	1883
55.832	1884
55.84	1884
55.848	1882
55.856	1879
55.864	1878
55.872	1877
55.88	1877
55.888	1879
55.896	1885
55.904	1893
55.912	1904
55.92	1919
55.928	1936.00000000002
55.936	1958
55.944	1989
55.952	2024
55.96	2065
55.968	2113
55.976	2163
55.984	2216
55.992	2271.00000000005
56	2328
56.008	2385
56.016	2441
56.024	2490
56.032	2533.00000000004
56.04	2572
56.048	2605
56.056	2632.00000000002
56.064	2650
56.072	2659
56.08	2659
56.088	2654
56.096	2641.99999999999
56.104	2621
56.112	2596
56.12	2568.99999999997
56.128	2539
56.136	2510
56.144	2483
56.152	2455
56.16	2428.99999999998
56.168	2407
56.176	2387
56.184	2368.99999999999
56.192	2355
56.2	2344
56.208	2333
56.216	2323
56.224	2312.99999999999
56.232	2303
56.24	2296
56.248	2289.99999999999
56.256	2282
56.264	2273
56.272	2262
56.28	2246
56.288	2227.99999999998
56.296	2210
56.304	2194
56.312	2182.99999999999
56.32	2176
56.328	2172
56.336	2172
56.344	2172
56.352	2172
56.36	2172
56.368	2172
56.376	2172
56.384	2172
56.392	2172
56.4	2172
56.408	2170
56.416	2167
56.424	2166
56.432	2165
56.44	2165
56.448	2165
56.456	2165
56.464	2165
56.472	2165
56.48	2162
56.488	2157
56.496	2153
56.504	2147
56.512	2139
56.52	2130
56.528	2120
56.536	2110
56.544	2102.99999999999
56.552	2098
56.56	2093
56.568	2088
56.576	2082
56.584	2077
56.592	2070
56.6	2061
56.608	2054.99999999999
56.616	2050
56.624	2042
56.632	2033
56.64	2027
56.648	2021
56.656	2013
56.664	2005
56.672	1995.99999999999
56.68	1986
56.688	1979
56.696	1973
56.704	1965
56.712	1959
56.72	1956
56.728	1954
56.736	1953
56.744	1951
56.752	1948
56.76	1948
56.768	1952
56.776	1959
56.784	1973
56.792	1994
56.8	2021.00000000003
56.808	2054
56.816	2091
56.824	2130
56.832	2166
56.84	2203
56.848	2239
56.856	2271
56.864	2301.00000000003
56.872	2328
56.88	2349
56.888	2365
56.896	2375
56.904	2378
56.912	2374
56.92	2364
56.928	2349.99999999998
56.936	2329
56.944	2302
56.952	2271
56.96	2237
56.968	2203
56.976	2171
56.984	2141
56.992	2113.99999999998
57	2088
57.008	2063
57.016	2041
57.024	2021
57.032	2001.99999999998
57.04	1982
57.048	1960
57.056	1936.99999999998
57.064	1919
57.072	1903
57.08	1890
57.088	1883
57.096	1880
57.104	1878
57.112	1875
57.12	1868.99999999999
57.128	1863
57.136	1858
57.144	1850
57.152	1843
57.16	1838
57.168	1833
57.176	1829
57.184	1825
57.192	1820
57.2	1812
57.208	1803
57.216	1794
57.224	1784.99999999999
57.232	1776
57.24	1766
57.248	1755.99999999999
57.256	1746
57.264	1739
57.272	1736
57.28	1732
57.288	1728
57.296	1726
57.304	1722
57.312	1704.99999999998
57.32	1683
57.328	1670
57.336	1661
57.344	1655
57.352	1650
57.36	1645
57.368	1641
57.376	1636
57.384	1632
57.392	1630
57.4	1629
57.408	1629
57.416	1629
57.424	1629
57.432	1629
57.44	1629
57.448	1627
57.456	1624
57.464	1622
57.472	1619
57.48	1614
57.488	1609
57.496	1605
57.504	1599
57.512	1594
57.52	1589
57.528	1585
57.536	1583
57.544	1582
57.552	1581
57.56	1581
57.568	1581
57.576	1583
57.584	1586
57.592	1587
57.6	1590
57.608	1595.00000000001
57.616	1602
57.624	1611
57.632	1625
57.64	1645
57.648	1669
57.656	1696
57.664	1726
57.672	1755.00000000002
57.68	1781
57.688	1803
57.696	1824
57.704	1846
57.712	1866
57.72	1883
57.728	1900
57.736	1914.00000000001
57.744	1923
57.752	1928
57.76	1928
57.768	1922
57.776	1913
57.784	1904
57.792	1892
57.8	1877.99999999999
57.808	1863
57.816	1850
57.824	1837
57.832	1825
57.84	1815
57.848	1807
57.856	1802
57.864	1799
57.872	1798
57.88	1797
57.888	1797
57.896	1797
57.904	1797
57.912	1797
57.92	1797
57.928	1797
57.936	1797
57.944	1797
57.952	1797
57.96	1795
57.968	1792
57.976	1790
57.984	1791
57.992	1794
58	1795
58.008	1796
58.016	1796
58.024	1794
58.032	1791
58.04	1790
58.048	1787
58.056	1784
58.064	1782
58.072	1781
58.08	1781
58.088	1781
58.096	1779
58.104	1776
58.112	1774
58.12	1773
58.128	1773
58.136	1773
58.144	1773
58.152	1773
58.16	1771
58.168	1768
58.176	1766
58.184	1765
58.192	1765
58.2	1765
58.208	1765
58.216	1765
58.224	1765
58.232	1765
58.24	1765
58.248	1765
58.256	1767
58.264	1770
58.272	1773
58.28	1777
58.288	1781
58.296	1785
58.304	1787
58.312	1788
58.32	1788
58.328	1790
58.336	1793
58.344	1795
58.352	1796
58.36	1794
58.368	1791
58.376	1790
58.384	1789
58.392	1789
58.4	1791
58.408	1794
58.416	1795
58.424	1796
58.432	1796
58.44	1797
58.448	1801
58.456	1809
58.464	1823
58.472	1842
58.48	1864.00000000002
58.488	1892
58.496	1924
58.504	1957
58.512	1991
58.52	2022
58.528	2048
58.536	2072
58.544	2094.00000000002
58.552	2111
58.56	2126
58.568	2137
58.576	2143
58.584	2144
58.592	2140
58.6	2132
58.608	2117.99999999999
58.616	2100
58.624	2080
58.632	2060
58.64	2042
58.648	2025
58.656	2011
58.664	1999
58.672	1987.99999999999
58.68	1978
58.688	1969
58.696	1961
58.704	1953
58.712	1947
58.72	1942
58.728	1935
58.736	1930
58.744	1925
58.752	1919
58.76	1914
58.768	1909
58.776	1905
58.784	1901
58.792	1896
58.8	1892
58.808	1888
58.816	1882
58.824	1875
58.832	1868
58.84	1860
58.848	1852
58.856	1844
58.864	1835.99999999999
58.872	1828
58.88	1820
58.888	1812
58.896	1805
58.904	1801
58.912	1799
58.92	1798
58.928	1797
58.936	1797
58.944	1797
58.952	1795
58.96	1792
58.968	1790
58.976	1789
58.984	1789
58.992	1789
59	1789
59.008	1789
59.016	1787
59.024	1784
59.032	1782
59.04	1779
59.048	1776
59.056	1774
59.064	1773
59.072	1775
59.08	1778
59.088	1779
59.096	1780
59.104	1780
59.112	1780
59.12	1780
59.128	1780
59.136	1782
59.144	1785
59.152	1789
59.16	1793
59.168	1795
59.176	1796
59.184	1796
59.192	1796
59.2	1796
59.208	1796
59.216	1796
59.224	1796
59.232	1796
59.24	1796
59.248	1796
59.256	1797
59.264	1799
59.272	1802
59.28	1809
59.288	1821.00000000001
59.296	1839
59.304	1863
59.312	1892.00000000003
59.32	1926
59.328	1962
59.336	1997
59.344	2031
59.352	2063.00000000004
59.36	2162
59.368	2294
59.376	2375.00000000006
59.384	2429
59.392	2467
59.4	2494
59.408	2509
59.416	2515
59.424	2513
59.432	2504
59.44	2486
59.448	2461
59.456	2433
59.464	2404
59.472	2374
59.48	2345.99999999998
59.488	2319
59.496	2295
59.504	2278
59.512	2264
59.52	2252
59.528	2241
59.536	2230
59.544	2220.99999999999
59.552	2215
59.56	2207
59.568	2198
59.576	2191
59.584	2185
59.592	2176
59.6	2168
59.608	2161.99999999999
59.616	2157
59.624	2152
59.632	2144
59.64	2135
59.648	2125
59.656	2112
59.664	2098
59.672	2082.99999999999
59.68	2068
59.688	2055
59.696	2044
59.704	2033
59.712	2022
59.72	2011
59.728	1999
59.736	1984.99999999999
59.744	1973
59.752	1962
59.76	1953
59.768	1947
59.776	1942
59.784	1939
59.792	1938
59.8	1937
59.808	1937
59.816	1937
59.824	1937
59.832	1937
59.84	1934
59.848	1929
59.856	1924
59.864	1918
59.872	1915
59.88	1914
59.888	1916
59.896	1920
59.904	1925
59.912	1931
59.92	1936
59.928	1940
59.936	1942
59.944	1943
59.952	1944
59.96	1944
59.968	1944
59.976	1947
59.984	1952
59.992	1954
60	1955
60.008	1956
60.016	1956
60.024	1956
60.032	1956
60.04	1956
60.048	1956
60.056	1956
60.064	1956
60.072	1956
60.08	1956
60.088	1958
60.096	1966.00000000001
60.104	1983
60.112	2010
60.12	2046.00000000004
60.128	2090
60.136	2141
60.144	2196
60.152	2251
60.16	2310.00000000005
60.168	2371
60.176	2433
60.184	2495.00000000005
60.192	2552
60.2	2601
60.208	2644
60.216	2677
60.224	2702.00000000002
60.232	2720
60.24	2732
60.248	2735
60.256	2731
60.264	2724
60.272	2713
60.28	2695
60.288	2669.99999999998
60.296	2641
60.304	2612
60.312	2581.99999999997
60.32	2551
60.328	2520
60.336	2491
60.344	2469
60.352	2452.99999999999
60.36	2440
60.368	2428
60.376	2416.99999999999
60.384	2406
60.392	2395
60.4	2385
60.408	2372
60.416	2356.99999999999
60.424	2342
60.432	2327
60.44	2315
60.448	2304
60.456	2293
60.464	2282
60.472	2273
60.48	2269
60.488	2267
60.496	2264
60.504	2260
60.512	2258
60.52	2254
60.528	2249
60.536	2247
60.544	2246
60.552	2245
60.56	2245
60.568	2245
60.576	2245
60.584	2245
60.592	2245
60.6	2245
60.608	2245
60.616	2245
60.624	2243
60.632	2240
60.64	2238
60.648	2239
60.656	2242
60.664	2246
60.672	2251
60.68	2256
60.688	2260
60.696	2262
60.704	2263
60.712	2264
60.72	2264
60.728	2264
60.736	2267
60.744	2272
60.752	2274
60.76	2275
60.768	2276
60.776	2276
60.784	2276
60.792	2276
60.8	2276
60.808	2273
60.816	2269
60.824	2267
60.832	2264
60.84	2260
60.848	2255
60.856	2250
60.864	2247
60.872	2246
60.88	2245
60.888	2245
60.896	2245
60.904	2245
60.912	2245
60.92	2245
60.928	2250.00000000001
60.936	2260
60.944	2271
60.952	2287
60.96	2313
60.968	2350
60.976	2394
60.984	2444
60.992	2497.00000000005
61	2550
61.008	2600
61.016	2646
61.024	2689
61.032	2726.00000000003
61.04	2757
61.048	2784
61.056	2802.00000000001
61.064	2813
61.072	2817
61.08	2814
61.088	2801
61.096	2779.99999999998
61.104	2751
61.112	2716
61.12	2674.99999999996
61.128	2632
61.136	2589
61.144	2547
61.152	2508
61.16	2471.99999999997
61.168	2436
61.176	2400
61.184	2365.99999999997
61.192	2334
61.2	2305
61.208	2280
61.216	2260
61.224	2241.99999999998
61.232	2222
61.24	2205
61.248	2188.99999999999
61.256	2173
61.264	2160
61.272	2148
61.28	2134
61.288	2118.99999999999
61.296	2105
61.304	2087
61.312	2066.99999999998
61.32	2050
61.328	2033
61.336	2014
61.344	1994
61.352	1976.99999999999
61.36	1964
61.368	1952
61.376	1940.99999999999
61.384	1933
61.392	1926
61.4	1919
61.408	1854
61.416	1756.99999999994
61.424	1707
61.432	1680
61.44	1664
61.448	1653
61.456	1643
61.464	1634
61.472	1625
61.48	1616.99999999999
61.488	1609
61.496	1600
61.504	1592
61.512	1588
61.52	1584
61.528	1580
61.536	1576
61.544	1569.99999999999
61.552	1563
61.56	1558
61.568	1552
61.576	1546
61.584	1543
61.592	1542
61.6	1541
61.608	1541
61.616	1539
61.624	1536
61.632	1534
61.64	1535
61.648	1538
61.656	1539
61.664	1540
61.672	1538
61.68	1535
61.688	1534
61.696	1533
61.704	1533
61.712	1535
61.72	1538
61.728	1542
61.736	1547
61.744	1550
61.752	1553
61.76	1557
61.768	1561
61.776	1569
61.784	1582
61.792	1597
61.8	1616.00000000002
61.808	1638
61.816	1662
61.824	1687
61.832	1715
61.84	1746
61.848	1776
61.856	1807
61.864	1838.00000000003
61.872	1866
61.88	1891
61.888	1913
61.896	1931
61.904	1944
61.912	1952
61.92	1956
61.928	1956
61.936	1952
61.944	1945
61.952	1935
61.96	1922
61.968	1906
61.976	1891
61.984	1878
61.992	1864.99999999999
62	1852
62.008	1838
62.016	1827
62.024	1820
62.032	1814
62.04	1809
62.048	1805
62.056	1800
62.064	1795
62.072	1789
62.08	1785
62.088	1779
62.096	1774
62.104	1769
62.112	1763
62.12	1758
62.128	1752
62.136	1743
62.144	1738
62.152	1731
62.16	1717.99999999999
62.168	1709
62.176	1705
62.184	1703
62.192	1700
62.2	1696
62.208	1694
62.216	1693
62.224	1693
62.232	1693
62.24	1693
62.248	1693
62.256	1695
62.264	1698
62.272	1697
62.28	1695
62.288	1694
62.296	1690
62.304	1685
62.312	1683
62.32	1682
62.328	1681
62.336	1681
62.344	1681
62.352	1681
62.36	1681
62.368	1681
62.376	1684
62.384	1690
62.392	1695
62.4	1698
62.408	1699
62.416	1700
62.424	1700
62.432	1700
62.44	1700
62.448	1700
62.456	1700
62.464	1700
62.472	1700
62.48	1700
62.488	1700
62.496	1700
62.504	1700
62.512	1700
62.52	1700
62.528	1700
62.536	1700
62.544	1700
62.552	1700
62.56	1700
62.568	1700
62.576	1702
62.584	1705
62.592	1711
62.6	1730
62.608	1748.00000000002
62.616	1772
62.624	1818
62.632	1854
62.64	1892
62.648	1930
62.656	1966
62.664	2000
62.672	2030.00000000003
62.68	2058
62.688	2083
62.696	2102
62.704	2116
62.712	2126
62.72	2131
62.728	2131
62.736	2121.99999999999
62.744	2106
62.752	2087
62.76	2065
62.768	2043
62.776	2021
62.784	1999
62.792	1982
62.8	1968.99999999999
62.808	1956
62.816	1942
62.824	1933
62.832	1927
62.84	1922
62.848	1917
62.856	1913
62.864	1911
62.872	1910
62.88	1907
62.888	1904
62.896	1902
62.904	1901
62.912	1901
62.92	1898
62.928	1893
62.936	1889
62.944	1883
62.952	1876
62.96	1868
62.968	1860
62.976	1854
62.984	1848
62.992	1839.99999999999
63	1834
63.008	1829
63.016	1823
63.024	1816
63.032	1806.99999999999
63.04	1800
63.048	1792
63.056	1781.99999999999
63.064	1773
63.072	1765
63.08	1756
63.088	1746
63.096	1738.99999999999
63.104	1734
63.112	1727
63.12	1719.99999999999
63.128	1712
63.136	1706
63.144	1703
63.152	1702
63.16	1701
63.168	1701
63.176	1701
63.184	1701
63.192	1701
63.2	1701
63.208	1701
63.216	1701
63.224	1701
63.232	1701
63.24	1701
63.248	1701
63.256	1701
63.264	1701
63.272	1701
63.28	1701
63.288	1701
63.296	1701
63.304	1701
63.312	1701
63.32	1701
63.328	1701
63.336	1701
63.344	1701
63.352	1701
63.36	1701
63.368	1701
63.376	1701
63.384	1703
63.392	1706
63.4	1709
63.408	1717
63.416	1730.00000000002
63.424	1797
63.432	1898
63.44	1973.00000000006
63.448	2039
63.456	2100
63.464	2155
63.472	2205
63.48	2255.00000000004
63.488	2305
63.496	2349
63.504	2390
63.512	2430
63.52	2464
63.528	2492
63.536	2517
63.544	2535.00000000001
63.552	2544
63.56	2546
63.568	2542
63.576	2531
63.584	2512
63.592	2486
63.6	2456
63.608	2423.99999999997
63.616	2392
63.624	2362
63.632	2333
63.64	2305
63.648	2282
63.656	2262
63.664	2244
63.672	2228.99999999999
63.68	2219
63.688	2211
63.696	2202
63.704	2192
63.712	2184
63.72	2177
63.728	2171
63.736	2168
63.744	2166
63.752	2165
63.76	2162
63.768	2155
63.776	2147
63.784	2140
63.792	2133
63.8	2126.99999999999
63.808	2121
63.816	2115
63.824	2109
63.832	2101
63.84	2092
63.848	2084
63.856	2077
63.864	2067.99999999999
63.872	2057
63.88	2049
63.888	2043
63.896	2032
63.904	2017
63.912	2005
63.92	1991
63.928	1974.99999999999
63.936	1961
63.944	1946
63.952	1930
63.96	1916
63.968	1904
63.976	1893
63.984	1885
63.992	1881
64	1876
64.008	1867
64.016	1858
64.024	1848
64.032	1840
64.04	1833
64.048	1827
64.056	1824
64.064	1822
64.072	1821
64.08	1821
64.088	1821
64.096	1821
64.104	1821
64.112	1821
64.12	1821
64.128	1818
64.136	1813
64.144	1811
64.152	1810
64.16	1809
64.168	1809
64.176	1812
64.184	1819
64.192	1829.00000000002
64.2	1839
64.208	1849
64.216	1860.00000000002
64.224	1868
64.232	1875
64.24	1887
64.248	1904
64.256	1926
64.264	1956
64.272	1996
64.28	2044
64.288	2099
64.296	2158
64.304	2217
64.312	2280
64.32	2342.00000000011
64.328	2401
64.336	2456
64.344	2502.00000000007
64.352	2539
64.36	2567
64.368	2584
64.376	2592
64.384	2593
64.392	2588
64.4	2579
64.408	2569
64.416	2556
64.424	2536
64.432	2512
64.44	2486
64.448	2458.99999999995
64.456	2435
64.464	2412
64.472	2390.99999999997
64.48	2373
64.488	2356
64.496	2341
64.504	2328
64.512	2315
64.52	2304
64.528	2293
64.536	2285
64.544	2278
64.552	2271
64.56	2265
64.568	2257
64.576	2247.99999999998
64.584	2237
64.592	2226
64.6	2214
64.608	2203
64.616	2196
64.624	2189
64.632	2183
64.64	2180
64.648	2178
64.656	2177
64.664	2180
64.672	2184
64.68	2186
64.688	2184
64.696	2180
64.704	2178
64.712	2174
64.72	2169
64.728	2164
64.736	2158
64.744	2155
64.752	2154
64.76	2156
64.768	2160
64.776	2162
64.784	2166
64.792	2171
64.8	2174
64.808	2175
64.816	2176
64.824	2176
64.832	2176
64.84	2179
64.848	2184
64.856	2186
64.864	2187
64.872	2188
64.88	2185
64.888	2181
64.896	2179
64.904	2178
64.912	2180
64.92	2184
64.928	2188
64.936	2195
64.944	2205
64.952	2213
64.96	2217
64.968	2219
64.976	2220
64.984	2217
64.992	2213
65	2211
65.008	2210
65.016	2209
65.024	2212
65.032	2216
65.04	2218
65.048	2219
65.056	2223
65.064	2228.00000000001
65.072	2235
65.08	2250
65.088	2271.00000000004
65.096	2301
65.104	2341
65.112	2389
65.12	2444
65.128	2505
65.136	2567
65.144	2628
65.152	2685
65.16	2736
65.168	2781
65.176	2818
65.184	2847
65.192	2871.00000000004
65.2	2889
65.208	2901
65.216	2904
65.224	2899
65.232	2888
65.24	2868
65.248	2842
65.256	2810
65.264	2771
65.272	2729
65.28	2686
65.288	2642
65.296	2601
65.304	2564
65.312	2531
65.32	2500.99999999995
65.328	2472
65.336	2446
65.344	2421.99999999996
65.352	2399
65.36	2377
65.368	2355
65.376	2330
65.384	2303
65.392	2279
65.4	2256
65.408	2235
65.416	2217
65.424	2197
65.432	2176
65.44	2157
65.448	2138.99999999997
65.456	2121
65.464	2104
65.472	2030.99999999985
65.48	1933
65.488	1877
65.496	1843
65.504	1820
65.512	1800
65.52	1784
65.528	1770
65.536	1755
65.544	1740
65.552	1727
65.56	1718
65.568	1709
65.576	1700.99999999999
65.584	1693
65.592	1687
65.6	1682
65.608	1677
65.616	1673
65.624	1669
65.632	1667
65.64	1664
65.648	1660
65.656	1656
65.664	1650
65.672	1645
65.68	1641
65.688	1637
65.696	1633
65.704	1629
65.712	1627
65.72	1626
65.728	1623
65.736	1620
65.744	1617
65.752	1615
65.76	1612
65.768	1606
65.776	1601
65.784	1599
65.792	1596
65.8	1592
65.808	1588
65.816	1584
65.824	1580
65.832	1576
65.84	1574
65.848	1573
65.856	1573
65.864	1575
65.872	1578
65.88	1579
65.888	1580
65.896	1580
65.904	1580
65.912	1584
65.92	1594
65.928	1606
65.936	1623
65.944	1646
65.952	1671
65.96	1697.00000000005
65.968	1723
65.976	1750
65.984	1777
65.992	1804
66	1830
66.008	1857
66.016	1881
66.024	1901
66.032	1919
66.04	1932
66.048	1938
66.056	1941
66.064	1941
66.072	1937
66.08	1929
66.088	1918.99999999998
66.096	1908
66.104	1892
66.112	1874
66.12	1858
66.128	1843
66.136	1828
66.144	1814
66.152	1803
66.16	1794
66.168	1785
66.176	1777
66.184	1769
66.192	1760.99999999999
66.2	1755
66.208	1750
66.216	1744.99999999999
66.224	1741
66.232	1737
66.24	1733
66.248	1727
66.256	1722
66.264	1718
66.272	1715
66.28	1714
66.288	1713
66.296	1713
66.304	1713
66.312	1713
66.32	1713
66.328	1713
66.336	1713
66.344	1713
66.352	1713
66.36	1713
66.368	1713
66.376	1713
66.384	1713
66.392	1713
66.4	1713
66.408	1713
66.416	1713
66.424	1713
66.432	1713
66.44	1711
66.448	1708
66.456	1706
66.464	1705
66.472	1705
66.48	1705
66.488	1705
66.496	1705
66.504	1707
66.512	1710
66.52	1711
66.528	1712
66.536	1712
66.544	1712
66.552	1712
66.56	1712
66.568	1710
66.576	1707
66.584	1706
66.592	1707
66.6	1710
66.608	1711
66.616	1712
66.624	1712
66.632	1712
66.64	1712
66.648	1710
66.656	1707
66.664	1706
66.672	1707
66.68	1710
66.688	1711
66.696	1713
66.704	1715
66.712	1716
66.72	1716
66.728	1716
66.736	1718
66.744	1721
66.752	1727
66.76	1738
66.768	1751
66.776	1768
66.784	1790
66.792	1816
66.8	1846
66.808	1881
66.816	1915
66.824	1943
66.832	1968.00000000004
66.84	1992
66.848	2014
66.856	2033
66.864	2049
66.872	2061
66.88	2069
66.888	2071
66.896	2068
66.904	2060
66.912	2048
66.92	2032
66.928	2010
66.936	1986
66.944	1965
66.952	1947
66.96	1931.99999999998
66.968	1920
66.976	1910
66.984	1901
66.992	1895
67	1890
67.008	1883
67.016	1878
67.024	1873
67.032	1867
67.04	1862
67.048	1857
67.056	1853
67.064	1851
67.072	1848
67.08	1844
67.088	1842
67.096	1840
67.104	1838
67.112	1835
67.12	1832
67.128	1828
67.136	1824
67.144	1820
67.152	1814
67.16	1807
67.168	1800
67.176	1792
67.184	1784
67.192	1775.99999999999
67.2	1768
67.208	1760
67.216	1751.99999999999
67.224	1744
67.232	1738
67.24	1733
67.248	1727
67.256	1721
67.264	1717
67.272	1715
67.28	1714
67.288	1713
67.296	1713
67.304	1713
67.312	1713
67.32	1713
67.328	1713
67.336	1713
67.344	1713
67.352	1713
67.36	1713
67.368	1713
67.376	1713
67.384	1713
67.392	1713
67.4	1713
67.408	1713
67.416	1713
67.424	1713
67.432	1713
67.44	1713
67.448	1713
67.456	1713
67.464	1713
67.472	1713
67.48	1713
67.488	1711
67.496	1710
67.504	1711
67.512	1712
67.52	1756
67.528	1822
67.536	1855
67.544	1872
67.552	1880
67.56	1884
67.568	1889
67.576	1898.00000000002
67.584	1908
67.592	1925
67.6	1954
67.608	1991
67.616	2037
67.624	2093
67.632	2154
67.64	2213
67.648	2269
67.656	2321
67.664	2371
67.672	2417
67.68	2460
67.688	2498
67.696	2529
67.704	2554.00000000004
67.712	2572
67.72	2584
67.728	2587
67.736	2580
67.744	2564
67.752	2542
67.76	2514
67.768	2482
67.776	2451
67.784	2421
67.792	2391
67.8	2364
67.808	2338
67.816	2310
67.824	2282
67.832	2259.99999999997
67.84	2243
67.848	2229
67.856	2216
67.864	2203
67.872	2194
67.88	2186
67.888	2179
67.896	2173
67.904	2167
67.912	2164
67.92	2159
67.928	2154
67.936	2148
67.944	2139
67.952	2129
67.96	2117.99999999998
67.968	2106
67.976	2097
67.984	2090
67.992	2080
68	2072
68.008	2065
68.016	2056
68.024	2045
68.032	2034
68.04	2025
68.048	2018
68.056	2009
68.064	1999.99999999998
68.072	1989
68.08	1978
68.088	1965.99999999998
68.096	1957
68.104	1950
68.112	1940
68.12	1929
68.128	1918
68.136	1906
68.144	1894
68.152	1885
68.16	1881
68.168	1879
68.176	1878
68.184	1877
68.192	1877
68.2	1877
68.208	1877
68.216	1877
68.224	1877
68.232	1877
68.24	1877
68.248	1877
68.256	1877
68.264	1877
68.272	1874
68.28	1869
68.288	1867
68.296	1866
68.304	1865
68.312	1865
68.32	1865
68.328	1865
68.336	1865
68.344	1865
68.352	1865
68.36	1865
68.368	1868
68.376	1872
68.384	1874
68.392	1875
68.4	1879
68.408	1887
68.416	1900
68.424	1921
68.432	1952
68.44	1993
68.448	2047.0000000001
68.456	2107
68.464	2167
68.472	2226.0000000001
68.48	2281
68.488	2333
68.496	2383
68.504	2429
68.512	2472
68.52	2513
68.528	2552
68.536	2583
68.544	2602
68.552	2608
68.56	2608
68.568	2605
68.576	2594.99999999998
68.584	2575
68.592	2551
68.6	2524.99999999995
68.608	2497
68.616	2471
68.624	2443
68.632	2414
68.64	2387
68.648	2362
68.656	2340
68.664	2320
68.672	2301
68.68	2284
68.688	2267
68.696	2256
68.704	2249.99999999999
68.712	2247
68.72	2246
68.728	2245
68.736	2245
68.744	2245
68.752	2245
68.76	2245
68.768	2245
68.776	2245
68.784	2245
68.792	2245
68.8	2245
68.808	2245
68.816	2242
68.824	2237
68.832	2231.99999999999
68.84	2226
68.848	2223
68.856	2222
68.864	2221
68.872	2221
68.88	2224
68.888	2228
68.896	2230
68.904	2231
68.912	2232
68.92	2232
68.928	2229
68.936	2222
68.944	2215
68.952	2209
68.96	2203
68.968	2203
68.976	2206
68.984	2207
68.992	2211
69	2216
69.008	2218
69.016	2219
69.024	2220
69.032	2220
69.04	2217
69.048	2213
69.056	2208
69.064	2201.99999999999
69.072	2199
69.08	2201
69.088	2205.00000000001
69.096	2210
69.104	2218
69.112	2228
69.12	2236
69.128	2240
69.136	2242
69.144	2243
69.152	2244
69.16	2244
69.168	2244
69.176	2244
69.184	2244
69.192	2244
69.2	2244
69.208	2247
69.216	2254.00000000001
69.224	2262
69.232	2272
69.24	2286
69.248	2308
69.256	2340
69.264	2383
69.272	2440
69.28	2506
69.288	2575
69.296	2649
69.304	2724
69.312	2796
69.32	2865.00000000011
69.328	2921
69.336	2964
69.344	2996.00000000005
69.352	3017
69.36	3034
69.368	3045
69.376	3051
69.384	3051
69.392	3043
69.4	3028
69.408	3008
69.416	2983
69.424	2953
69.432	2917
69.44	2875
69.448	2830.99999999992
69.456	2786
69.464	2739
69.472	2694.99999999993
69.48	2658
69.488	2627
69.496	2603
69.504	2582
69.512	2562
69.52	2546
69.528	2533
69.536	2519
69.544	2500
69.552	2481
69.56	2463
69.568	2345
69.576	2180.9999999998
69.584	2093
69.592	2044
69.6	2013.99999999995
69.608	1991
69.616	1972
69.624	1952
69.632	1933
69.64	1917
69.648	1903
69.656	1890
69.664	1877
69.672	1865
69.68	1852
69.688	1838
69.696	1825
69.704	1812.99999999998
69.712	1801
69.72	1791
69.728	1781
69.736	1769
69.744	1755
69.752	1740
69.76	1724
69.768	1707
69.776	1692
69.784	1682
69.792	1675
69.8	1670
69.808	1665
69.816	1661
69.824	1657
69.832	1650.99999999999
69.84	1646
69.848	1641
69.856	1636
69.864	1630
69.872	1625
69.88	1621
69.888	1615
69.896	1610
69.904	1605
69.912	1601
69.92	1599
69.928	1598
69.936	1597
69.944	1597
69.952	1597
69.96	1594.99999999999
69.968	1590
69.976	1583
69.984	1576
69.992	1570
70	1565
70.008	1561
70.016	1561
70.024	1563
70.032	1566
70.04	1569
70.048	1571
70.056	1572
70.064	1574
70.072	1577
70.08	1583
70.088	1594.00000000002
70.096	1607
70.104	1623
70.112	1642
70.12	1661
70.128	1680
70.136	1702
70.144	1727
70.152	1753
70.16	1781
70.168	1810
70.176	1837
70.184	1863
70.192	1884.00000000003
70.2	1898
70.208	1907
70.216	1910
70.224	1909
70.232	1907
70.24	1902
70.248	1895
70.256	1886
70.264	1871
70.272	1855
70.28	1840
70.288	1826
70.296	1815
70.304	1806
70.312	1797
70.32	1788.99999999999
70.328	1781
70.336	1774
70.344	1766.99999999999
70.352	1760
70.36	1752
70.368	1744
70.376	1738
70.384	1733
70.392	1729
70.4	1727
70.408	1724
70.416	1720
70.424	1718
70.432	1715
70.44	1710
70.448	1702.99999999999
70.456	1697
70.464	1691
70.472	1683.99999999999
70.48	1678
70.488	1675
70.496	1674
70.504	1673
70.512	1673
70.52	1673
70.528	1673
70.536	1671
70.544	1668
70.552	1666
70.56	1665
70.568	1667
70.576	1670
70.584	1671
70.592	1672
70.6	1672
70.608	1672
70.616	1672
70.624	1672
70.632	1672
70.64	1672
70.648	1672
70.656	1670
70.664	1667
70.672	1666
70.68	1665
70.688	1665
70.696	1665
70.704	1665
70.712	1667
70.72	1670
70.728	1671
70.736	1672
70.744	1672
70.752	1672
70.76	1672
70.768	1672
70.776	1672
70.784	1672
70.792	1672
70.8	1672
70.808	1672
70.816	1672
70.824	1670
70.832	1669
70.84	1671
70.848	1672
70.856	1672
70.864	1672
70.872	1672
70.88	1672
70.888	1672
70.896	1672
70.904	1672
70.912	1674
70.92	1680
70.928	1690
70.936	1705
70.944	1725
70.952	1748
70.96	1776.00000000005
70.968	1809
70.976	1843
70.984	1875
70.992	1906
71	1935
71.008	1961
71.016	1983
71.024	2002
71.032	2019
71.04	2034
71.048	2043
71.056	2048
71.064	2048
71.072	2042
71.08	2031
71.088	2016.99999999997
71.096	1999
71.104	1978
71.112	1955
71.12	1935
71.128	1920
71.136	1908
71.144	1900
71.152	1894
71.16	1887
71.168	1880
71.176	1872
71.184	1866
71.192	1860.99999999999
71.2	1855
71.208	1850
71.216	1847
71.224	1845
71.232	1843
71.24	1842
71.248	1839
71.256	1836
71.264	1834
71.272	1831
71.28	1828
71.288	1826
71.296	1823
71.304	1818
71.312	1813
71.32	1808.99999999999
71.328	1803
71.336	1796
71.344	1787.99999999999
71.352	1782
71.36	1777
71.368	1773
71.376	1770
71.384	1767
71.392	1764
71.4	1758
71.408	1753
71.416	1749
71.424	1745
71.432	1741
71.44	1735
71.448	1729.99999999999
71.456	1725
71.464	1719
71.472	1709.99999999998
71.48	1701
71.488	1696
71.496	1690
71.504	1685
71.512	1681
71.52	1677
71.528	1675
71.536	1674
71.544	1673
71.552	1671
71.56	1670
71.568	1671
71.576	1672
71.584	1672
71.592	1672
71.6	1672
71.608	1672
71.616	1714
71.624	1777
71.632	1809
71.64	1825
71.648	1833
71.656	1837
71.664	1839
71.672	1840
71.68	1840
71.688	1840
71.696	1840
71.704	1840
71.712	1840
71.72	1843
71.728	1848
71.736	1850
71.744	1857
71.752	1873
71.76	1893
71.768	1921
71.776	1962
71.784	2011
71.792	2065
71.8	2122
71.808	2180
71.816	2235
71.824	2289
71.832	2343.00000000009
71.84	2391
71.848	2433
71.856	2472
71.864	2505
71.872	2530
71.88	2545
71.888	2553
71.896	2554
71.904	2546
71.912	2531
71.92	2512
71.928	2487
71.936	2460
71.944	2434
71.952	2409
71.96	2384.99999999995
71.968	2358
71.976	2329
71.984	2304
71.992	2280
72	2256
72.008	2235
72.016	2222
72.024	2212
72.032	2204
72.04	2200
72.048	2198
72.056	2197
72.064	2193.99999999999
72.072	2189
72.08	2184
72.088	2177.99999999999
72.096	2175
72.104	2171
72.112	2166
72.12	2160
72.128	2151
72.136	2144
72.144	2137
72.152	2128
72.16	2120
72.168	2113
72.176	2104
72.184	2093
72.192	2081.99999999998
72.2	2070
72.208	2058
72.216	2046.99999999998
72.224	2031
72.232	2021
72.24	2015
72.248	2005
72.256	1999
72.264	1991
72.272	1976
72.28	1968
72.288	1958
72.296	1942
72.304	1930
72.312	1921
72.32	1913.99999999999
72.328	1904
72.336	1896
72.344	1888.99999999999
72.352	1883
72.36	1877
72.368	1868
72.376	1860
72.384	1853
72.392	1847
72.4	1844
72.408	1842
72.416	1841
72.424	1841
72.432	1841
